x,y,z,signal,cytoplasm.p
779,810,13,0.0453944481224659,1
780,811,13,0.0421539648624522,1
780,812,13,0.0425327417803141,1
781,813,13,0.0510643070983854,1
781,814,13,0.064231068880331,1
782,815,13,0.046964439559063,1
796,793,13,0.0438156977754617,1
796,794,13,0.0481622205572363,1
797,793,13,0.0525356256245319,1
797,794,13,0.061134172276911,1
797,795,13,0.0432155421004274,1
798,793,13,0.0422147527820246,1
798,794,13,0.0498214663722289,1
809,812,13,0.0510337157927783,1
809,813,13,0.0481535535613211,1
810,812,13,0.0555904307973844,1
810,813,13,0.05296677487922,1
779,810,14,0.0449600818605604,1
779,811,14,0.0449027164041286,1
780,813,14,0.0609810751737703,1
780,814,14,0.0795112043549389,1
781,813,14,0.0535583798031378,1
781,814,14,0.0722592590766318,1
781,815,14,0.057486080685612,1
782,814,14,0.0432680496056241,1
782,815,14,0.0444323196613879,1
782,816,14,0.0478053652456989,1
788,797,14,0.0452299292920197,1
789,796,14,0.0458182604380043,1
789,797,14,0.0505074512591507,1
796,793,14,0.0423113495063046,1
796,794,14,0.0496936133139591,1
797,793,14,0.0553756861038351,1
797,794,14,0.0670700804530792,1
797,795,14,0.0441261200483717,1
798,793,14,0.0423242040183372,1
798,794,14,0.051681664300247,1
807,806,14,0.0434217820001061,1
809,812,14,0.0682246940804559,1
809,813,14,0.061452309960408,1
810,811,14,0.0431617586058133,1
810,812,14,0.0769821608893759,1
810,813,14,0.0707715743641874,1
811,812,14,0.0468207015138944,1
811,813,14,0.0447979338833323,1
777,810,15,0.0526453228672788,1
780,813,15,0.0502226947564275,1
780,814,15,0.0686125948633251,1
780,815,15,0.0481621610831532,1
781,813,15,0.0480787676053018,1
781,814,15,0.0678941479405488,1
781,815,15,0.0505817235753621,1
788,797,15,0.0487419901386347,1
789,796,15,0.0481464274848293,1
789,797,15,0.0577808450544856,1
797,793,15,0.0445250776039462,1
797,794,15,0.0530396198174392,1
806,806,15,0.0506359152784551,1
807,805,15,0.0462000299835886,1
807,806,15,0.061338876663901,1
807,807,15,0.0437036134592921,1
808,806,15,0.0429603252933889,1
809,812,15,0.0671613623570319,1
809,813,15,0.0577343849821842,1
810,812,15,0.0776628796165838,1
810,813,15,0.0688851808059703,1
811,812,15,0.0420378687490468,1
776,809,16,0.0513997355198342,1
777,810,16,0.0466420792156722,1
777,811,16,0.0424343013594608,1
780,814,16,0.049140239411948,1
781,814,16,0.0545887034104905,1
781,815,16,0.0419340567371506,1
788,797,16,0.044265592179768,1
789,796,16,0.0437759339442338,1
789,797,16,0.0555913877894474,1
806,806,16,0.0564216676152242,1
807,805,16,0.0469098423508587,1
807,806,16,0.0701097197347638,1
807,807,16,0.0457679561772464,1
808,806,16,0.0442767219433933,1
809,812,16,0.0524620075232336,1
809,813,16,0.0437020644297664,1
810,812,16,0.0615450624962315,1
810,813,16,0.0529578213263594,1
776,809,17,0.0500827360188974,1
777,810,17,0.0438524013947819,1
781,814,17,0.0418418016209305,1
789,797,17,0.0441483768722549,1
806,806,17,0.0537548064791196,1
807,805,17,0.0427554803312936,1
807,806,17,0.066369005369277,1
807,807,17,0.043479577291956,1
809,812,17,0.0428761667625605,1
810,812,17,0.044958943742881,1
811,799,17,0.0452863918237366,1
811,800,17,0.0428181308710111,1
812,799,17,0.0452704906166333,1
812,800,17,0.0430223621687045,1
777,810,18,0.0422344657371754,1
803,823,18,0.0433763086569091,1
803,824,18,0.0440618907420869,1
804,822,18,0.0452119708223176,1
804,823,18,0.0508097418028926,1
804,824,18,0.0522477386223484,1
804,825,18,0.0459194799205547,1
805,822,18,0.0415398327779103,1
805,823,18,0.0478297009591202,1
805,824,18,0.0500624066959772,1
805,825,18,0.0432316541701886,1
806,806,18,0.047984138932496,1
806,823,18,0.0419651400556262,1
806,824,18,0.0413587558220802,1
807,806,18,0.0568992823489486,1
809,812,18,0.0429934226205847,1
811,799,18,0.041598201183651,1
812,799,18,0.0412462416704925,1
819,805,18,0.0443424218815489,1
791,791,19,0.0542025003423545,1
803,822,19,0.0424896906543161,1
803,823,19,0.0528793047233149,1
803,824,19,0.064090509995236,1
803,825,19,0.0570203607684899,1
804,790,19,0.0663910378136652,1
804,822,19,0.0534358037180515,1
804,823,19,0.065416144051679,1
804,824,19,0.0795200389596335,1
804,825,19,0.069944662934203,1
804,826,19,0.0432602963478934,1
805,790,19,0.0510617334926114,1
805,822,19,0.0510168900340209,1
805,823,19,0.0599888906738323,1
805,824,19,0.0694704220030058,1
805,825,19,0.0602581893217074,1
806,823,19,0.0488920324366026,1
806,824,19,0.0481495742044941,1
807,806,19,0.0475367099992673,1
774,809,20,0.0419260088123722,1
790,791,20,0.0550936924426045,1
791,790,20,0.050979534903155,1
791,791,20,0.0565896818997311,1
802,824,20,0.045492326242898,1
803,794,20,0.0466162944973194,1
803,822,20,0.0425698292778064,1
803,823,20,0.0604924036673406,1
803,824,20,0.0787607171216239,1
803,825,20,0.0667742942113248,1
804,789,20,0.0556136635369025,1
804,790,20,0.0579740493165152,1
804,793,20,0.0518070627009089,1
804,794,20,0.0591929003602789,1
804,795,20,0.0446136993943678,1
804,821,20,0.0420050850124705,1
804,822,20,0.0581869016528778,1
804,823,20,0.0780309809365451,1
804,824,20,0.099566395006357,1
804,825,20,0.0832894630870103,1
804,826,20,0.0445869495738498,1
805,789,20,0.0446899424654209,1
805,790,20,0.0462174396697065,1
805,793,20,0.0506881443368086,1
805,794,20,0.0557580287633102,1
805,795,20,0.042055386569861,1
805,821,20,0.0441504909055693,1
805,822,20,0.058085395613382,1
805,823,20,0.0689656924941631,1
805,824,20,0.080986934776698,1
805,825,20,0.0671160755461862,1
806,794,20,0.0430910736581544,1
806,822,20,0.051223297542479,1
806,823,20,0.0519976825436948,1
806,824,20,0.049716521649388,1
807,806,20,0.0410815606380016,1
818,815,20,0.0411503721520457,1
772,808,21,0.0454394429696314,1
772,809,21,0.0470407826547103,1
773,808,21,0.0556602804045137,1
773,809,21,0.0580898237291989,1
773,810,21,0.0439885564943666,1
774,808,21,0.0513606826742351,1
774,809,21,0.0546995306608146,1
774,810,21,0.0450670676257955,1
775,809,21,0.0449376952750415,1
779,797,21,0.0411990057317445,1
790,791,21,0.0490746503118561,1
791,790,21,0.0499254324760674,1
791,791,21,0.0523744941134499,1
803,793,21,0.0467475375783209,1
803,794,21,0.0550244429830401,1
803,795,21,0.0421318567237765,1
803,823,21,0.0570827490815688,1
803,824,21,0.0742435361620159,1
804,789,21,0.0463115655161741,1
804,790,21,0.0463223411386687,1
804,792,21,0.0412359418406619,1
804,793,21,0.0688162179033513,1
804,794,21,0.0829699250591951,1
804,795,21,0.057628434606667,1
804,821,21,0.0420352194489854,1
804,822,21,0.0578038236774672,1
804,823,21,0.0780839507175689,1
804,824,21,0.0972198829082905,1
804,825,21,0.0758740181477703,1
805,789,21,0.0416532985148262,1
805,790,21,0.0411438975870997,1
805,792,21,0.0422463145965317,1
805,793,21,0.0700676877782792,1
805,794,21,0.0840578303923724,1
805,795,21,0.0587880981243648,1
805,821,21,0.0469917706035741,1
805,822,21,0.0612771858196139,1
805,823,21,0.071147385688001,1
805,824,21,0.0794365211268812,1
805,825,21,0.0613881644585129,1
806,793,21,0.0538008286059007,1
806,794,21,0.0626131359260919,1
806,795,21,0.0478371352194966,1
806,821,21,0.0434057375145301,1
806,822,21,0.0537887121131708,1
806,823,21,0.0531517771245289,1
806,824,21,0.0495730431274907,1
818,815,21,0.047426455862834,1
819,814,21,0.0449493440852094,1
819,815,21,0.0681543092065794,1
820,814,21,0.0509889696554145,1
772,808,22,0.0539219286523813,1
772,809,22,0.0585857889208996,1
772,810,22,0.0416324609588329,1
773,807,22,0.046804475902702,1
773,808,22,0.0721983900560371,1
773,809,22,0.0790769191940557,1
773,810,22,0.0536438062132812,1
774,807,22,0.04223373042124,1
774,808,22,0.0640695697112812,1
774,809,22,0.069693125410209,1
774,810,22,0.0500189689884397,1
775,808,22,0.0450498796158052,1
775,809,22,0.0481773702281997,1
778,797,22,0.0420943366874986,1
779,796,22,0.0499651449433145,1
779,797,22,0.0489139026789463,1
780,796,22,0.0440029059685767,1
780,797,22,0.0444502727243551,1
782,794,22,0.0441887759948241,1
782,795,22,0.0438540612623714,1
783,794,22,0.0448137458793111,1
783,795,22,0.042746929580177,1
791,790,22,0.0453945562571623,1
791,791,22,0.044156778938164,1
803,793,22,0.0444539655242366,1
803,794,22,0.0520106533005261,1
803,823,22,0.0483462279633384,1
804,793,22,0.0702432498645937,1
804,794,22,0.0877013154456053,1
804,795,22,0.0596882816246191,1
804,821,22,0.0423921585649124,1
804,822,22,0.0545638594639962,1
804,823,22,0.0678796632979681,1
804,824,22,0.0775606328544177,1
805,792,22,0.0425356100531357,1
805,793,22,0.0756635555881978,1
805,794,22,0.0960176413538914,1
805,795,22,0.06540863950375,1
805,821,22,0.0465511703764221,1
805,822,22,0.0583326942572777,1
805,823,22,0.0650774715893387,1
805,824,22,0.067128851660564,1
805,825,22,0.0488874583389455,1
806,793,22,0.0573567894358803,1
806,794,22,0.070273057193652,1
806,795,22,0.0512884541037853,1
806,822,22,0.049138444375988,1
806,823,22,0.0494107762020967,1
806,824,22,0.045527318630648,1
807,794,22,0.0416522063543927,1
819,814,22,0.0455850895921912,1
820,814,22,0.0506909990927931,1
772,808,23,0.0557342337233709,1
772,809,23,0.0623332779251149,1
772,810,23,0.0445958301357904,1
773,807,23,0.0495148125934879,1
773,808,23,0.0802835023565146,1
773,809,23,0.0927757631562943,1
773,810,23,0.063434078320836,1
774,807,23,0.0462752646985979,1
774,808,23,0.0755413417543444,1
774,809,23,0.0871345436547123,1
774,810,23,0.0620158160834703,1
775,808,23,0.0544348926183536,1
775,809,23,0.0603663348315612,1
775,810,23,0.0478886127417102,1
778,796,23,0.0471872565076974,1
778,797,23,0.0440831716503353,1
779,795,23,0.0500878832304453,1
779,796,23,0.0581172575016715,1
779,797,23,0.053904892030966,1
780,795,23,0.0470669350310308,1
780,796,23,0.0521852908351865,1
780,797,23,0.0500710304380139,1
781,794,23,0.0507790207356499,1
781,795,23,0.0506687071251336,1
781,796,23,0.0450036168893247,1
782,793,23,0.0559842843952896,1
782,794,23,0.0726424830338824,1
782,795,23,0.0664935278788981,1
782,796,23,0.0469615307357303,1
783,793,23,0.0640150698243036,1
783,794,23,0.0860129435501417,1
783,795,23,0.0767843338690759,1
783,796,23,0.0497214742184824,1
784,793,23,0.054799403866395,1
784,794,23,0.0710264532502997,1
784,795,23,0.0619262427077205,1
785,794,23,0.0445969466265305,1
791,790,23,0.042222457379142,1
794,789,23,0.0423496751460705,1
795,788,23,0.0727300937648929,1
795,789,23,0.0448387249941759,1
796,788,23,0.0684977450022955,1
797,788,23,0.048820247218408,1
802,822,23,0.0419830174243059,1
803,794,23,0.0459496008402325,1
803,822,23,0.0501541157319806,1
803,823,23,0.0497559800000986,1
803,824,23,0.0449198557535055,1
804,793,23,0.0635734855714144,1
804,794,23,0.079799794232649,1
804,795,23,0.0537143424757326,1
804,821,23,0.0451504827305862,1
804,822,23,0.0573449162462173,1
804,823,23,0.0616213407110609,1
805,788,23,0.0425192600870424,1
805,792,23,0.0437924380022694,1
805,793,23,0.07382742303686,1
805,794,23,0.0948850169170244,1
805,795,23,0.0630401165882344,1
805,821,23,0.0444785715743988,1
805,822,23,0.0560483217624883,1
805,823,23,0.0599282271091608,1
805,824,23,0.0558637196155561,1
806,788,23,0.042633482766833,1
806,789,23,0.041135498224558,1
806,793,23,0.0562014134588942,1
806,794,23,0.0687535105929181,1
806,795,23,0.0474823831278039,1
806,822,23,0.0459508173555669,1
809,792,23,0.0413940753172867,1
819,814,23,0.0435481076557894,1
820,814,23,0.0468282871628457,1
821,814,23,0.0463631457663493,1
772,808,24,0.0492018870023566,1
772,809,24,0.055236208565704,1
772,810,24,0.0426784803173658,1
773,807,24,0.0459780997394646,1
773,808,24,0.0726594169273362,1
773,809,24,0.087232432588614,1
773,810,24,0.0637831263072944,1
774,807,24,0.0450736016648245,1
774,808,24,0.0746082474592455,1
774,809,24,0.090052461115412,1
774,810,24,0.0674548453297533,1
774,811,24,0.0415618030448481,1
775,808,24,0.0570024806964428,1
775,809,24,0.0656010003151478,1
775,810,24,0.0527663255925327,1
776,809,24,0.0437077171710199,1
778,796,24,0.0440700278779898,1
778,797,24,0.0413444631185856,1
779,795,24,0.0487731978120112,1
779,796,24,0.0561782239732546,1
779,797,24,0.0502301506437432,1
780,795,24,0.0494573984764427,1
780,796,24,0.0533967130253086,1
780,797,24,0.0481561163536254,1
781,793,24,0.0518430120807218,1
781,794,24,0.0618979438576767,1
781,795,24,0.0592240377461027,1
781,796,24,0.048305088118099,1
781,797,24,0.041004647131831,1
782,792,24,0.0467910185397369,1
782,793,24,0.0825230800533268,1
782,794,24,0.109206192277158,1
782,795,24,0.0935320680362748,1
782,796,24,0.0570347967504572,1
783,792,24,0.0538693968168779,1
783,793,24,0.105720881251061,1
783,794,24,0.147056234021477,1
783,795,24,0.124745526618999,1
783,796,24,0.0684880885739084,1
784,792,24,0.046954691216184,1
784,793,24,0.0877507654422618,1
784,794,24,0.122071388017828,1
784,795,24,0.103633362564304,1
784,796,24,0.0564654621672598,1
785,793,24,0.0533992055300603,1
785,794,24,0.0682169894833385,1
785,795,24,0.0581498060452832,1
791,790,24,0.0430712066110612,1
794,789,24,0.0445552471842374,1
795,788,24,0.106136150925585,1
797,788,24,0.0554662597255265,1
802,822,24,0.0550832790713427,1
802,823,24,0.0446598972400306,1
803,821,24,0.0456542903911422,1
803,822,24,0.0596477743673536,1
803,823,24,0.0503788196310669,1
804,793,24,0.0506862357594174,1
804,794,24,0.0593048413979757,1
804,821,24,0.0433492209154649,1
804,822,24,0.0545988085978676,1
804,823,24,0.0516823671757735,1
804,824,24,0.0429814737366342,1
805,788,24,0.0426097796413856,1
805,792,24,0.0420432781872334,1
805,793,24,0.0622056519497075,1
805,794,24,0.0751269479708611,1
805,795,24,0.0494410971709628,1
805,822,24,0.0493030578242936,1
805,823,24,0.0504699879935884,1
806,788,24,0.0449646965087286,1
806,789,24,0.0423036908664331,1
806,793,24,0.0503194590894868,1
806,794,24,0.0571557778487718,1
806,822,24,0.0429809682069286,1
806,823,24,0.0447217070324838,1
772,808,25,0.0420302047024406,1
772,809,25,0.0446053378789699,1
773,807,25,0.0415001067938261,1
773,808,25,0.0588759034978287,1
773,809,25,0.0680572258761657,1
773,810,25,0.0540545234170875,1
774,797,25,0.0505535112330755,1
774,798,25,0.0569355561328507,1
774,799,25,0.0439453323528544,1
774,807,25,0.0428452456461295,1
774,808,25,0.0661260267065018,1
774,809,25,0.077629320013561,1
774,810,25,0.0618471962446637,1
775,797,25,0.0484798013470469,1
775,798,25,0.0558417953058642,1
775,799,25,0.046499135960522,1
775,808,25,0.0561538882598333,1
775,809,25,0.0640011474821442,1
775,810,25,0.0532678272806883,1
776,808,25,0.0434957028785543,1
776,809,25,0.0470405555718479,1
776,810,25,0.0421726045807415,1
779,795,25,0.0432547706649081,1
779,796,25,0.0485880009242489,1
779,797,25,0.0434572988411334,1
780,795,25,0.0484775953992407,1
780,796,25,0.0507452070160905,1
780,797,25,0.0437748553006374,1
781,793,25,0.0550451237437235,1
781,794,25,0.0645501581491562,1
781,795,25,0.0618761330894161,1
781,796,25,0.0485802422597833,1
782,792,25,0.0533153416662795,1
782,793,25,0.0976258529989255,1
782,794,25,0.126089608454645,1
782,795,25,0.106113604841389,1
782,796,25,0.0601638796462559,1
783,792,25,0.0638304676773714,1
783,793,25,0.133373799499414,1
783,794,25,0.182170500387685,1
783,795,25,0.151574804511933,1
783,796,25,0.0754670802516026,1
784,792,25,0.0547634707067865,1
784,793,25,0.111562977171381,1
784,794,25,0.155726517231437,1
784,795,25,0.13217531021898,1
784,796,25,0.0660308681736837,1
785,793,25,0.063921392736826,1
785,794,25,0.0842573659408752,1
785,795,25,0.0734606842140731,1
785,796,25,0.0416803159687178,1
791,790,25,0.0434598670401726,1
792,790,25,0.0417396413665215,1
793,789,25,0.0451953883666271,1
794,788,25,0.0718520940976017,1
794,789,25,0.0410240275727904,1
795,788,25,0.111454637019074,1
802,822,25,0.0539268974416801,1
802,823,25,0.0414241908302296,1
803,821,25,0.0430817740742654,1
803,822,25,0.0587116739276953,1
803,823,25,0.0465129015073717,1
804,822,25,0.0503238980187734,1
804,823,25,0.0439023488110417,1
805,793,25,0.0454180863670955,1
805,794,25,0.0486086492445234,1
805,822,25,0.0448227778298266,1
805,823,25,0.0426942869066098,1
806,788,25,0.0418209289211609,1
806,794,25,0.0415638576040794,1
812,789,25,0.0434632219191279,1
773,797,26,0.0416924703085913,1
773,798,26,0.0445049212965402,1
773,808,26,0.044007804470323,1
773,809,26,0.0477215932964101,1
773,810,26,0.0416557964263126,1
774,797,26,0.0608632786422642,1
774,798,26,0.070806247754583,1
774,799,26,0.0509131564197796,1
774,808,26,0.0522683599089489,1
774,809,26,0.0583310452031578,1
774,810,26,0.0494872003987662,1
775,797,26,0.0580652825598545,1
775,798,26,0.0695203856394701,1
775,799,26,0.0542899813117292,1
775,808,26,0.0494949428430273,1
775,809,26,0.0554648593812083,1
775,810,26,0.0477631764939046,1
776,798,26,0.0458218775435984,1
776,799,26,0.0417447182905167,1
776,808,26,0.0416689483087604,1
776,809,26,0.0459345538972307,1
776,810,26,0.0415354316957674,1
777,813,26,0.0417947386976967,1
777,814,26,0.0470736177552673,1
777,815,26,0.0429735826071656,1
778,814,26,0.0458801783651539,1
778,815,26,0.042476998344328,1
780,795,26,0.0429144437417131,1
780,796,26,0.0429102318952889,1
781,793,26,0.0529830978116392,1
781,794,26,0.0602708410811843,1
781,795,26,0.0577117902373747,1
781,796,26,0.0450616041202607,1
782,792,26,0.0571380113181559,1
782,793,26,0.0957304788541736,1
782,794,26,0.120748230245932,1
782,795,26,0.100711444119838,1
782,796,26,0.0572968179332657,1
783,792,26,0.0663247890919255,1
783,793,26,0.134082773822787,1
783,794,26,0.180635593253329,1
783,795,26,0.148257826767697,1
783,796,26,0.0731201248012809,1
784,792,26,0.0567429790520601,1
784,793,26,0.116031513737821,1
784,794,26,0.161419992825047,1
784,795,26,0.137348365959301,1
784,796,26,0.068801484550969,1
785,792,26,0.0415647172749157,1
785,793,26,0.0669801502328313,1
785,794,26,0.0888007263104779,1
785,795,26,0.0799216566287391,1
785,796,26,0.0459257679531495,1
786,794,26,0.0415292166540928,1
790,790,26,0.0416392383009288,1
790,791,26,0.0410728341680034,1
791,790,26,0.0435279378315464,1
795,788,26,0.0989260862151879,1
802,822,26,0.0429788974274929,1
803,822,26,0.0474252717879086,1
804,822,26,0.0415014692910006,1
811,789,26,0.0426680561326344,1
812,788,26,0.0428716683591909,1
812,789,26,0.0465397621659535,1
812,819,26,0.0415408870912,1
813,789,26,0.0411972917968068,1
815,791,26,0.0416091849654363,1
815,818,26,0.0427273950472752,1
816,790,26,0.0434783121160083,1
816,791,26,0.0441208106347792,1
817,791,26,0.0433988763680445,1
773,797,27,0.042279395703523,1
773,798,27,0.04623871517122,1
774,796,27,0.0425453097354013,1
774,797,27,0.0640138424954997,1
774,798,27,0.0759328380158685,1
774,799,27,0.0559795589090576,1
775,796,27,0.0416838871170658,1
775,797,27,0.0642398169772684,1
775,798,27,0.0778599280670698,1
775,799,27,0.0606512319093897,1
775,809,27,0.043530357345378,1
776,797,27,0.0466365643461566,1
776,798,27,0.0524994599753263,1
776,799,27,0.0458259380014476,1
777,813,27,0.0451458599723158,1
777,814,27,0.0505720292998313,1
777,815,27,0.0450307857317912,1
778,813,27,0.0455923346168489,1
778,814,27,0.0517061135550994,1
778,815,27,0.0457959792838144,1
779,814,27,0.0415753523223051,1
781,791,27,0.0480101182933023,1
781,792,27,0.0481149062208334,1
781,794,27,0.0507772148862202,1
781,795,27,0.0495397160140651,1
782,791,27,0.0485427032999336,1
782,792,27,0.058436189975187,1
782,793,27,0.078184370003366,1
782,794,27,0.0954567466837468,1
782,795,27,0.0816448262694992,1
782,796,27,0.0517382728138041,1
783,792,27,0.0613569513784016,1
783,793,27,0.106984510872598,1
783,794,27,0.141364737292811,1
783,795,27,0.116839496189204,1
783,796,27,0.0638482342079873,1
784,792,27,0.0535708206999568,1
784,793,27,0.098570085167752,1
784,794,27,0.13443288152927,1
784,795,27,0.115502756699442,1
784,796,27,0.0641720003024311,1
785,792,27,0.0417946332663677,1
785,793,27,0.0623791000027077,1
785,794,27,0.0809436106105916,1
785,795,27,0.074409030908097,1
785,796,27,0.0469668725897317,1
786,794,27,0.0432881221086404,1
786,795,27,0.042064824025488,1
789,791,27,0.0414889094460156,1
790,791,27,0.0446967522479257,1
790,792,27,0.0441770190499597,1
791,790,27,0.0427367514018798,1
791,791,27,0.0425135127279296,1
791,792,27,0.0432611425018926,1
794,789,27,0.041445517695724,1
808,789,27,0.0415402572065936,1
809,789,27,0.041356517433865,1
810,789,27,0.0411399614841513,1
811,788,27,0.0411046176586381,1
811,789,27,0.0433548763600858,1
812,788,27,0.0428345619381267,1
812,789,27,0.0462083833888843,1
812,819,27,0.0424612485257997,1
813,789,27,0.0421214839030258,1
815,790,27,0.0410633399416609,1
815,791,27,0.0429800274350701,1
816,790,27,0.0439347378559762,1
816,791,27,0.0456154105610573,1
816,792,27,0.04135532254547,1
817,791,27,0.0451880081735989,1
817,792,27,0.0417039812470214,1
818,791,27,0.0428650207787307,1
819,794,27,0.0411858889930731,1
773,798,28,0.0441336408165052,1
774,796,28,0.0413131797509217,1
774,797,28,0.0591102692320369,1
774,798,28,0.0679774657241127,1
774,799,28,0.0526535897648174,1
775,796,28,0.0431325892714637,1
775,797,28,0.064104059272693,1
775,798,28,0.0738696604492677,1
775,799,28,0.0583137490584712,1
775,800,28,0.0410150145458468,1
776,797,28,0.0511090207953402,1
776,798,28,0.055187012685584,1
776,799,28,0.0474577770776417,1
777,800,28,0.0412705125030959,1
777,813,28,0.044820358315995,1
777,814,28,0.0478936680387662,1
777,815,28,0.0418495710988656,1
778,813,28,0.0470922980240677,1
778,814,28,0.052878731609424,1
778,815,28,0.0457729898473631,1
779,813,28,0.0415631493218181,1
779,814,28,0.0482357034901641,1
779,815,28,0.0447032889903221,1
781,791,28,0.0576776629271959,1
781,792,28,0.0503127114844325,1
781,794,28,0.0411928285372135,1
781,795,28,0.0411567250654583,1
782,790,28,0.0460310533002839,1
782,791,28,0.0576765004792097,1
782,792,28,0.0558478021882483,1
782,793,28,0.0572387063474288,1
782,794,28,0.0650587264397205,1
782,795,28,0.0598964030680149,1
782,796,28,0.0455229770225881,1
783,791,28,0.042860871109757,1
783,792,28,0.0512316022871613,1
783,793,28,0.0715209640303341,1
783,794,28,0.0901100158075625,1
783,795,28,0.0792401485182476,1
783,796,28,0.0529006937662597,1
784,792,28,0.0453255906511759,1
784,793,28,0.0702395570647122,1
784,794,28,0.0915624918628641,1
784,795,28,0.0826645472698714,1
784,796,28,0.0550245619312061,1
785,793,28,0.0521547806306018,1
785,794,28,0.0647321218094966,1
785,795,28,0.0614552674443541,1
785,796,28,0.0443898767930571,1
786,794,28,0.0413182728951214,1
789,791,28,0.0414919399208817,1
790,791,28,0.0443748055197486,1
790,792,28,0.0440078693511408,1
791,791,28,0.0429714496502794,1
791,792,28,0.0437669587644339,1
793,790,28,0.0416686941922239,1
794,789,28,0.0477704215185624,1
808,788,28,0.0412216437304325,1
808,789,28,0.0416265297707363,1
809,788,28,0.0420628100167678,1
809,789,28,0.0416951223120202,1
810,788,28,0.0411507560302179,1
811,788,28,0.041055948935163,1
811,789,28,0.0424077461813962,1
811,821,28,0.0425208037098333,1
812,789,28,0.0451135222913621,1
812,820,28,0.0516860113150416,1
812,821,28,0.0520482030738455,1
813,789,28,0.0439498064259173,1
813,819,28,0.0613169145070654,1
814,790,28,0.0410520263490517,1
814,791,28,0.042015179386378,1
814,818,28,0.0434307652900082,1
815,790,28,0.0420364440744219,1
815,791,28,0.0443466932020561,1
815,792,28,0.0439191177990835,1
815,818,28,0.043813548598371,1
816,790,28,0.0436118422458383,1
816,791,28,0.0471161795717641,1
816,792,28,0.0493467766820417,1
816,793,28,0.048481980261179,1
816,794,28,0.0412798742644354,1
817,791,28,0.0467344424665888,1
817,792,28,0.0512944555794346,1
817,793,28,0.0535711180703718,1
817,794,28,0.0482707445385274,1
818,791,28,0.0436223718618987,1
818,792,28,0.0476740032165314,1
818,793,28,0.0516024502284108,1
818,794,28,0.0506093195498794,1
818,795,28,0.04178701247364,1
819,792,28,0.0425074112276861,1
819,793,28,0.0466659607633687,1
819,794,28,0.0495727727907498,1
819,795,28,0.044483575507474,1
820,794,28,0.0434180243194067,1
820,795,28,0.0422480447516739,1
774,797,29,0.0501225944679846,1
774,798,29,0.0541615767665079,1
774,799,29,0.0451570816504331,1
775,796,29,0.041980622240781,1
775,797,29,0.0560745714600355,1
775,798,29,0.0605716177391769,1
775,799,29,0.0507507975798936,1
776,797,29,0.0490202964067186,1
776,798,29,0.0520040841177208,1
776,799,29,0.0469689812163112,1
777,799,29,0.0414249856202481,1
777,800,29,0.0418820601683943,1
777,813,29,0.0412334952931562,1
777,814,29,0.042725262090389,1
778,813,29,0.0427561805034527,1
778,814,29,0.0479415663025296,1
778,815,29,0.0435753170487671,1
779,813,29,0.0410978727569512,1
779,814,29,0.0509585297383824,1
779,815,29,0.0492806631286724,1
780,814,29,0.0430675192179145,1
780,815,29,0.0457859822311337,1
781,791,29,0.0595413806395813,1
781,792,29,0.0525102896651691,1
781,793,29,0.0434078704714162,1
782,790,29,0.0464485559562883,1
782,791,29,0.0592412203493581,1
782,792,29,0.0542257871492208,1
782,793,29,0.0483017900098593,1
782,794,29,0.0458114155117232,1
782,795,29,0.0431713366365455,1
783,791,29,0.0433603479757228,1
783,792,29,0.0444408541923,1
783,793,29,0.0487489756400212,1
783,794,29,0.0527578207986621,1
783,795,29,0.0504402563588176,1
783,796,29,0.0428662724378414,1
784,793,29,0.0479116994993883,1
784,794,29,0.0555904199839148,1
784,795,29,0.0542104049886601,1
784,796,29,0.0441847452740163,1
785,793,29,0.0428172793102771,1
785,794,29,0.0487312631767534,1
785,795,29,0.047637529383441,1
790,791,29,0.041911375484584,1
790,792,29,0.04147703895972,1
791,791,29,0.0428967231683431,1
791,792,29,0.0431328514981024,1
793,790,29,0.0426813567002896,1
794,789,29,0.0513287775320669,1
809,788,29,0.0412399428244281,1
810,822,29,0.0443025769492988,1
812,789,29,0.0426558233951059,1
812,820,29,0.0438330398773943,1
812,821,29,0.0467246454630964,1
813,789,29,0.0431056150714507,1
813,790,29,0.0424581693903201,1
813,819,29,0.0484248364808748,1
813,820,29,0.0644856125488844,1
813,821,29,0.0606493936195512,1
814,790,29,0.0430142439563734,1
814,791,29,0.0438715790831856,1
814,792,29,0.0439958042223917,1
814,819,29,0.0623441184284274,1
815,790,29,0.0428448455477528,1
815,791,29,0.0467519440671985,1
815,792,29,0.0519831492405008,1
815,793,29,0.0495748435701855,1
815,818,29,0.0427726304941401,1
816,791,29,0.0491625259728727,1
816,792,29,0.060630021288694,1
816,793,29,0.0632775046872066,1
816,794,29,0.0504232251441371,1
817,791,29,0.0481907843372861,1
817,792,29,0.0634927792407681,1
817,793,29,0.0731248665077173,1
817,794,29,0.062881088296997,1
817,795,29,0.042116904398634,1
818,791,29,0.0437377434728383,1
818,792,29,0.0572558727304798,1
818,793,29,0.069742618660744,1
818,794,29,0.0652022428087615,1
818,795,29,0.0464927776403746,1
819,792,29,0.0475364288490567,1
819,793,29,0.0567626920072109,1
819,794,29,0.0566178455814044,1
819,795,29,0.0457440043419973,1
820,793,29,0.0424782337832342,1
820,794,29,0.0439699329962818,1
820,795,29,0.0417204528646481,1
774,797,30,0.0430580060680001,1
774,798,30,0.0441465980564994,1
774,806,30,0.0413870844091654,1
775,796,30,0.0417641473920896,1
775,797,30,0.0473445167966489,1
775,798,30,0.0495775901914737,1
775,799,30,0.0455883985139005,1
775,806,30,0.0484677443284001,1
775,807,30,0.0512897084662633,1
775,808,30,0.0425302681991343,1
776,797,30,0.0436486864402638,1
776,798,30,0.0475054104113989,1
776,799,30,0.0466920104117276,1
776,806,30,0.0434523435686716,1
776,807,30,0.0470314776640864,1
777,799,30,0.0412380207301999,1
779,814,30,0.0471354924285383,1
779,815,30,0.0469564429982654,1
780,814,30,0.0435888365891825,1
780,815,30,0.0474873086632242,1
781,792,30,0.0508538769792218,1
781,793,30,0.0479188634230237,1
782,791,30,0.0517147156701968,1
782,792,30,0.0516182378940828,1
782,793,30,0.0485726349838927,1
783,792,30,0.041451932786587,1
783,793,30,0.0411500531546914,1
791,791,30,0.0439192610775562,1
792,790,30,0.0448201447499697,1
792,791,30,0.0434794637505248,1
793,790,30,0.0436158432296045,1
812,789,30,0.0421725207763518,1
812,790,30,0.0429448322947645,1
812,791,30,0.0412471121547984,1
813,790,30,0.0441009706213601,1
813,791,30,0.0434811182113795,1
813,792,30,0.0414101468365368,1
813,820,30,0.045265729986625,1
814,790,30,0.0440063311350847,1
814,791,30,0.0463233305711407,1
814,792,30,0.0501600631402818,1
814,793,30,0.0482602068123648,1
814,819,30,0.043972871556656,1
814,820,30,0.0538459153675581,1
814,821,30,0.0542346866347332,1
815,790,30,0.0428580109470376,1
815,791,30,0.0513552921596203,1
815,792,30,0.066429744628236,1
815,793,30,0.0700898932381817,1
815,794,30,0.0509535933894924,1
815,819,30,0.053057121418049,1
815,821,30,0.0523495041851155,1
816,791,30,0.055486459286811,1
816,792,30,0.0801064101642462,1
816,793,30,0.091163161242587,1
816,794,30,0.0691649631126598,1
816,795,30,0.0412344090313406,1
816,818,30,0.0443528352528107,1
817,791,30,0.0530414959544215,1
817,792,30,0.0802793986447868,1
817,793,30,0.100848883318943,1
817,794,30,0.0836423390417207,1
817,795,30,0.0502241924219724,1
818,791,30,0.04595326660644,1
818,792,30,0.0680829457137007,1
818,793,30,0.0910014782445534,1
818,794,30,0.0821319622632402,1
818,795,30,0.0525410756132297,1
819,792,30,0.0506838459826273,1
819,793,30,0.0640337230594299,1
819,794,30,0.0610116232254988,1
819,795,30,0.0455178838783884,1
820,793,30,0.0428531421823329,1
820,794,30,0.042564473906968,1
775,797,31,0.0457290979741008,1
775,798,31,0.0481135491303937,1
775,805,31,0.0435793558796771,1
775,806,31,0.0609289758770524,1
775,807,31,0.0625777380332306,1
775,808,31,0.0455943891760802,1
776,798,31,0.0463137876841847,1
776,799,31,0.0468111694404081,1
776,806,31,0.0544896304016633,1
776,807,31,0.0559010693396872,1
776,808,31,0.0417150920870749,1
779,814,31,0.0411593446284782,1
781,793,31,0.0481146629177665,1
782,792,31,0.046519411216094,1
782,793,31,0.0482182829905766,1
782,796,31,0.0431483958607076,1
783,793,31,0.0410468169600534,1
783,796,31,0.0428822385257625,1
791,791,31,0.0418585652022374,1
792,790,31,0.0453931505061093,1
792,791,31,0.0424920533974321,1
793,790,31,0.0427628578209544,1
793,791,31,0.0410833421571246,1
794,790,31,0.0432171127568924,1
808,826,31,0.0411946722337869,1
811,790,31,0.0462155040586412,1
812,790,31,0.0463597016762695,1
812,791,31,0.0510946605076604,1
813,790,31,0.0446175435828243,1
813,791,31,0.046059611673599,1
813,792,31,0.0453852674867429,1
813,793,31,0.0414617433069165,1
814,790,31,0.0438589570607502,1
814,791,31,0.0490520934141904,1
814,792,31,0.0573566650809795,1
814,793,31,0.0621529254717506,1
814,794,31,0.0489229968069122,1
814,821,31,0.0454758573286387,1
815,791,31,0.0558712403836896,1
815,792,31,0.080187013766931,1
815,793,31,0.0944281370113317,1
815,794,31,0.0741275995472876,1
815,795,31,0.0442998411414802,1
815,820,31,0.0463633836626813,1
815,821,31,0.0473805634976886,1
816,791,31,0.0599936594139428,1
816,792,31,0.0936596561645384,1
816,793,31,0.113565188396161,1
816,794,31,0.0909291361326725,1
816,795,31,0.0532613986729883,1
817,791,31,0.0552840419486495,1
817,792,31,0.088020210071977,1
817,793,31,0.112915471886406,1
817,794,31,0.0961892943709316,1
817,795,31,0.0564321350538342,1
818,791,31,0.046432476326936,1
818,792,31,0.0715329345412238,1
818,793,31,0.0956229280851499,1
818,794,31,0.0869393659344737,1
818,795,31,0.0534246442173847,1
819,792,31,0.0503799982992575,1
819,793,31,0.0617811908259908,1
819,794,31,0.0575835803346068,1
820,793,31,0.0418989508079695,1
775,805,32,0.046250680275375,1
775,806,32,0.0645615988000336,1
775,807,32,0.0633951930840162,1
775,808,32,0.0445092331675585,1
776,805,32,0.0445973142844982,1
776,806,32,0.0606623211225039,1
776,807,32,0.0583905625400477,1
776,808,32,0.041007353202608,1
781,794,32,0.0441134655855273,1
781,795,32,0.0439261492577159,1
781,796,32,0.043391144737253,1
782,793,32,0.0435368238002218,1
782,794,32,0.0413106385855566,1
782,795,32,0.0440640264023405,1
782,796,32,0.0499026917494178,1
782,797,32,0.0454748841163713,1
783,796,32,0.0480237757054556,1
783,797,32,0.0439119295451414,1
792,791,32,0.0418798244835465,1
812,790,32,0.0544802659369564,1
813,790,32,0.0456689967098505,1
813,791,32,0.04881734380181,1
813,793,32,0.0508756823407477,1
813,794,32,0.0418946984110342,1
814,791,32,0.0508660853864436,1
814,792,32,0.0660437686429623,1
814,793,32,0.083612634440624,1
814,794,32,0.0745751312084779,1
814,795,32,0.0432510156875762,1
815,791,32,0.0590394464126401,1
815,792,32,0.0917184437219893,1
815,793,32,0.121039891149019,1
815,794,32,0.106968907035909,1
815,795,32,0.0603822035982556,1
815,820,32,0.0414485130268139,1
815,821,32,0.0448956254714132,1
816,791,32,0.0624843853498421,1
816,792,32,0.100482447273306,1
816,793,32,0.127588431040817,1
816,794,32,0.110415581534988,1
816,795,32,0.0623073958855354,1
816,820,32,0.0437613871242027,1
817,791,32,0.0565786089068214,1
817,792,32,0.0900627230980988,1
817,793,32,0.113952743148002,1
817,794,32,0.100124726884197,1
817,795,32,0.0579823270275234,1
817,818,32,0.0424232418833881,1
818,791,32,0.0464471177648264,1
818,792,32,0.0698325651011963,1
818,793,32,0.0892860564547893,1
818,794,32,0.0812824074278329,1
818,795,32,0.0499433558019931,1
819,792,32,0.0489857203375498,1
819,793,32,0.0570100825655986,1
819,794,32,0.0518565397312394,1
820,817,32,0.0439267899557919,1
776,805,33,0.0448487112333869,1
776,806,33,0.055991329370759,1
776,807,33,0.051632468420127,1
777,806,33,0.0411602772902345,1
780,795,33,0.0449041518922231,1
781,794,33,0.0486355747839231,1
781,795,33,0.0494268828651231,1
781,796,33,0.0453829101503617,1
782,794,33,0.0453595909030865,1
782,795,33,0.0491758589809369,1
782,796,33,0.0515813207087373,1
782,797,33,0.0448928031558376,1
783,795,33,0.044194669335777,1
783,796,33,0.0488717031136824,1
783,797,33,0.0435235097157295,1
784,796,33,0.0415056973576292,1
813,793,33,0.0602326100592777,1
813,794,33,0.0528690805877718,1
814,791,33,0.0522958531555045,1
814,792,33,0.0730125902524616,1
814,793,33,0.0993600415652471,1
814,794,33,0.0948603622062489,1
814,795,33,0.0528338503036898,1
815,791,33,0.0605964184317926,1
815,792,33,0.0951370356404174,1
815,793,33,0.131476057204812,1
815,794,33,0.123929228609465,1
815,795,33,0.068182132263959,1
815,820,33,0.0419462245938612,1
816,791,33,0.0631468833807093,1
816,792,33,0.0962528451319966,1
816,793,33,0.121777802317145,1
816,794,33,0.10993942121293,1
816,795,33,0.061905951231944,1
817,791,33,0.0559296547466763,1
817,792,33,0.0814389107739096,1
817,793,33,0.0976607264385094,1
817,794,33,0.086387354529637,1
817,795,33,0.0523522075525251,1
818,791,33,0.0458074307481615,1
818,792,33,0.0622581891919457,1
818,793,33,0.0732832405840416,1
818,794,33,0.0648220087758659,1
818,795,33,0.0421797306572332,1
819,792,33,0.0461609338841109,1
819,793,33,0.0507499000619136,1
819,794,33,0.0442752621249921,1
776,806,34,0.0448044165583806,1
780,795,34,0.0447916025968591,1
781,794,34,0.0522381524815139,1
781,795,34,0.0527873902313884,1
781,796,34,0.0458358647665757,1
782,794,34,0.0511462407578356,1
782,795,34,0.0543144576002558,1
782,796,34,0.0512805494574796,1
782,797,34,0.0427645285020135,1
783,794,34,0.045198337740471,1
783,795,34,0.0493177100756536,1
783,796,34,0.0497418684222205,1
783,797,34,0.0427519578435589,1
784,795,34,0.0430793058998204,1
784,796,34,0.0431957912981328,1
785,795,34,0.0418403985732449,1
786,795,34,0.0434038613775478,1
787,795,34,0.0417421582015799,1
809,793,34,0.0451980214464841,1
813,793,34,0.0633102586867413,1
813,794,34,0.0541303312459877,1
814,792,34,0.0732757360361125,1
814,793,34,0.0996049990929662,1
814,794,34,0.0945058966715016,1
814,795,34,0.0521888214330235,1
815,791,34,0.0605246061799238,1
815,792,34,0.0962079692329971,1
815,793,34,0.130307824012425,1
815,794,34,0.119220979048081,1
815,795,34,0.0632197337256633,1
816,791,34,0.0646394125275516,1
816,792,34,0.0977429628751095,1
816,793,34,0.118989787067211,1
816,794,34,0.101987444350641,1
816,795,34,0.055240155482122,1
817,791,34,0.055471866509534,1
817,792,34,0.0774811160054316,1
817,793,34,0.0875757169957552,1
817,794,34,0.0733864497450054,1
817,795,34,0.0445561636257892,1
818,792,34,0.0569444069577497,1
818,793,34,0.062175401268394,1
818,794,34,0.0524336329789024,1
819,793,34,0.0471056959129497,1
781,795,35,0.0523942449157445,1
781,796,35,0.0452522023361074,1
782,794,35,0.0555703880314096,1
782,795,35,0.0567607618028805,1
782,796,35,0.0497159593489668,1
783,794,35,0.0503671897444708,1
783,795,35,0.0529594109063963,1
783,796,35,0.0491894461055376,1
783,797,35,0.041091687452318,1
784,794,35,0.0419739259997074,1
784,795,35,0.0454216385918717,1
784,796,35,0.0440016624195683,1
785,795,35,0.0442968620305949,1
785,796,35,0.0415951680054175,1
786,794,35,0.0412167344152166,1
786,795,35,0.0490946444172176,1
786,796,35,0.0435914939993462,1
787,794,35,0.0435412789497128,1
787,795,35,0.0501573597728722,1
787,796,35,0.0421303644649664,1
788,794,35,0.0446043619633351,1
788,795,35,0.0476222283239027,1
789,794,35,0.0413763952944279,1
789,795,35,0.0421209324160743,1
809,793,35,0.0486881336531006,1
810,794,35,0.0413491129105301,1
813,793,35,0.0608373911959498,1
813,794,35,0.0494602316054879,1
814,792,35,0.0675353678314158,1
814,793,35,0.084487108916813,1
814,794,35,0.077659495000587,1
814,795,35,0.046432146516112,1
815,791,35,0.0565163827957871,1
815,792,35,0.0879723064014789,1
815,793,35,0.110743532442182,1
815,794,35,0.0962719957867262,1
815,795,35,0.0534711907974432,1
816,791,35,0.0629355449300961,1
816,792,35,0.0940473298645453,1
816,793,35,0.108420474759761,1
816,794,35,0.0875027963632485,1
816,795,35,0.0488897399810392,1
817,791,35,0.0528252806290014,1
817,792,35,0.0709117493711102,1
817,793,35,0.0768304641305534,1
817,794,35,0.0620258185428858,1
818,792,35,0.0514615344988177,1
818,793,35,0.0528966657488194,1
781,797,36,0.0418402498880373,1
782,795,36,0.0595208296405334,1
782,796,36,0.0513870296930091,1
782,797,36,0.0431295587965975,1
783,795,36,0.0571345185674627,1
783,796,36,0.0510170143889217,1
783,797,36,0.0430182395334048,1
784,795,36,0.0476601133147809,1
784,796,36,0.0455251397165158,1
784,797,36,0.041369750417335,1
785,795,36,0.0449576434231569,1
785,796,36,0.0440428509254211,1
786,795,36,0.0499932058970262,1
786,796,36,0.0470262223178421,1
787,794,36,0.0452631023135029,1
787,795,36,0.0547032613078398,1
787,796,36,0.0464630297853993,1
788,794,36,0.0500627040663923,1
788,795,36,0.0569126099502779,1
788,796,36,0.0460293123316721,1
789,794,36,0.0450267874513924,1
789,795,36,0.0498735764824164,1
789,796,36,0.0439661834256847,1
790,795,36,0.0433816856546868,1
790,796,36,0.0439035382927019,1
799,795,36,0.0425305277224056,1
800,794,36,0.0415961601412568,1
800,795,36,0.0417922515996798,1
806,791,36,0.0412420000870268,1
807,792,36,0.0417915622409904,1
813,793,36,0.0559724490527703,1
813,794,36,0.0436840140455725,1
814,793,36,0.067374495843605,1
814,794,36,0.0590500003590072,1
815,792,36,0.0753807887638881,1
815,793,36,0.0871005028522905,1
815,794,36,0.0721997363330071,1
815,795,36,0.044716989656354,1
816,791,36,0.0586440302683722,1
816,792,36,0.0849732392578776,1
816,793,36,0.0931736339581702,1
816,794,36,0.0719022902236632,1
816,795,36,0.0435941811465513,1
817,792,36,0.0642355078096175,1
817,793,36,0.0679356932908995,1
817,794,36,0.0541553103608524,1
818,793,36,0.0480962205452982,1
781,798,37,0.0423769791569075,1
781,811,37,0.0410573384660116,1
782,797,37,0.0453550330256339,1
782,798,37,0.0425302573856646,1
783,796,37,0.0500512796357193,1
783,797,37,0.044320946330847,1
783,798,37,0.0419587222613958,1
784,796,37,0.0446908291699313,1
784,797,37,0.0418161655877852,1
784,798,37,0.0412759408648544,1
785,795,37,0.0425878526283263,1
785,796,37,0.0429693058799236,1
786,795,37,0.0469339293544783,1
786,796,37,0.0455467504355882,1
787,794,37,0.0470345162490548,1
787,795,37,0.0562772158810594,1
787,796,37,0.0481756887336709,1
788,794,37,0.054443197363036,1
788,795,37,0.064265877439097,1
788,796,37,0.0523228868296006,1
789,794,37,0.0468666749800621,1
789,795,37,0.0556222494317954,1
789,796,37,0.0503460926652062,1
790,795,37,0.0488962875369053,1
790,796,37,0.0504059181859808,1
790,797,37,0.0438721305701372,1
791,795,37,0.0464619159980266,1
791,796,37,0.0476151671282288,1
800,795,37,0.0440281202764061,1
807,792,37,0.0429789541982085,1
814,794,37,0.0479365921064959,1
815,793,37,0.0674086555941928,1
815,795,37,0.0411019224013308,1
816,792,37,0.0692745251870363,1
816,793,37,0.0743568883575006,1
816,794,37,0.0615993839609601,1
816,795,37,0.0428505902034983,1
817,793,37,0.0582989778589451,1
781,810,38,0.0434582125793179,1
781,811,38,0.0467483485885438,1
782,798,38,0.0450483927637299,1
782,799,38,0.0426293033608177,1
782,811,38,0.0443010252164056,1
783,797,38,0.04417790575447,1
783,798,38,0.0438198068939243,1
783,799,38,0.0411174721706708,1
784,797,38,0.0410026655635197,1
784,798,38,0.041409435850908,1
786,795,38,0.0436009611920146,1
786,796,38,0.0412152502665088,1
787,794,38,0.04658368107289,1
787,795,38,0.0544038633672262,1
787,796,38,0.0454742299014581,1
788,794,38,0.0512046497140875,1
788,795,38,0.061304068105135,1
788,796,38,0.0507306737128965,1
789,794,38,0.0435823458040321,1
789,795,38,0.0532096021534203,1
789,796,38,0.049873198010979,1
789,797,38,0.0413117848133383,1
790,795,38,0.0493480742983983,1
790,796,38,0.0508488595293096,1
790,797,38,0.0447806161117064,1
790,800,38,0.0424269211664325,1
791,795,38,0.0486948001571327,1
791,796,38,0.0493686361109157,1
791,797,38,0.0425643252217605,1
792,795,38,0.042927695648755,1
792,796,38,0.0414891121985713,1
800,795,38,0.044394740151027,1
803,792,38,0.0418489682479333,1
803,793,38,0.0421761703223547,1
816,793,38,0.06236646987017,1
781,810,39,0.0440774242912225,1
781,811,39,0.0464992386884836,1
782,810,39,0.0449001671286613,1
782,811,39,0.0477401492103096,1
783,800,39,0.0418616064905732,1
783,810,39,0.0443923125270932,1
783,811,39,0.0472874324904277,1
784,810,39,0.0422411295378401,1
784,811,39,0.0460370439624636,1
786,795,39,0.0418613902211804,1
786,804,39,0.0435460828335996,1
786,805,39,0.0435580019805086,1
787,794,39,0.0448499547823954,1
787,795,39,0.0502882946699889,1
787,796,39,0.0424156021670885,1
787,804,39,0.0414497052118415,1
787,805,39,0.0453438356778233,1
788,794,39,0.0443087406269927,1
788,795,39,0.0516048400052008,1
788,796,39,0.045103536052151,1
789,795,39,0.047202400771926,1
789,796,39,0.0457222043872063,1
790,795,39,0.0470667295751076,1
790,796,39,0.047420832858622,1
790,797,39,0.0420892083995226,1
790,800,39,0.0466576506119515,1
790,801,39,0.0420488822678735,1
791,795,39,0.0477921511858008,1
791,796,39,0.0477653067474234,1
791,797,39,0.0424077542914984,1
791,800,39,0.0442133333843729,1
791,801,39,0.0419157279061135,1
792,795,39,0.0426606516092995,1
792,796,39,0.042135311627326,1
792,800,39,0.0424329307521841,1
792,801,39,0.0418251840214636,1
800,795,39,0.0422793875934208,1
801,794,39,0.0419538589034259,1
802,793,39,0.0442623238085698,1
803,793,39,0.0490732715944772,1
804,793,39,0.0428122943007738,1
782,810,40,0.0477675883895171,1
783,809,40,0.0414511758437123,1
783,810,40,0.0540082039198914,1
783,811,40,0.0590321959812475,1
783,812,40,0.0471522100525993,1
784,804,40,0.0470573164497874,1
784,810,40,0.052303373923638,1
784,811,40,0.0568221931238963,1
784,812,40,0.0449971288075416,1
785,803,40,0.0550982719469964,1
785,804,40,0.0754061139097812,1
785,805,40,0.0632592569571917,1
786,803,40,0.0623354352123078,1
786,804,40,0.0901216565076282,1
786,805,40,0.0773104307939241,1
787,795,40,0.0433925694118779,1
787,803,40,0.0551832009375365,1
787,804,40,0.0785225666730423,1
787,805,40,0.0716467300889637,1
788,795,40,0.0416794806281882,1
788,803,40,0.041091284650574,1
788,804,40,0.0513142766692818,1
788,805,40,0.0492326837638868,1
789,795,40,0.0413097410675767,1
789,800,40,0.0419438834776845,1
789,801,40,0.0422697176481967,1
790,795,40,0.0438399523878606,1
790,796,40,0.0432021793553217,1
790,799,40,0.041074283172935,1
790,800,40,0.0468141863984373,1
790,801,40,0.0482618288328105,1
791,795,40,0.045701458745705,1
791,796,40,0.0453141716272377,1
791,797,40,0.0436467859729748,1
791,800,40,0.0476035156146934,1
791,801,40,0.0514693039767529,1
792,796,40,0.0412433382538946,1
792,800,40,0.0503557977542067,1
792,801,40,0.0541256327934298,1
793,800,40,0.0435819267820836,1
793,801,40,0.0445391675548851,1
795,796,40,0.045518765176164,1
799,795,40,0.0421888139717294,1
800,794,40,0.0426934137189365,1
801,794,40,0.0417625551086853,1
783,810,41,0.0582584111275966,1
784,804,41,0.0524460089949036,1
784,805,41,0.0440525992683001,1
784,810,41,0.0561080499620361,1
784,811,41,0.0612765099777614,1
785,803,41,0.0642709759900315,1
785,804,41,0.0977226227387197,1
785,805,41,0.0735545126901257,1
785,810,41,0.0420027790400701,1
785,811,41,0.0431813039521847,1
786,803,41,0.0874921775360636,1
786,804,41,0.141721917008437,1
786,805,41,0.104226762524182,1
786,806,41,0.045873895739294,1
787,803,41,0.0851551001902565,1
787,804,41,0.135289481340147,1
787,805,41,0.102233515665733,1
787,806,41,0.0461468817803158,1
788,803,41,0.0586546058416785,1
788,804,41,0.0841150120198203,1
788,805,41,0.0670991686864065,1
789,800,41,0.0412423758550967,1
789,801,41,0.0418105371768384,1
789,804,41,0.0428121023616877,1
790,796,41,0.0413030231995638,1
790,800,41,0.0452327597176975,1
790,801,41,0.0480846285058458,1
790,802,41,0.0429446430590458,1
791,796,41,0.0430416993557854,1
791,798,41,0.0418421071014477,1
791,799,41,0.0417143243307306,1
791,800,41,0.0488668911196933,1
791,801,41,0.0541991373532969,1
791,802,41,0.0452488717874587,1
792,797,41,0.0422983354955947,1
792,798,41,0.041580123765783,1
792,799,41,0.0433537869030197,1
792,800,41,0.0527819023955469,1
792,801,41,0.0584934418901876,1
792,802,41,0.0469844985452423,1
793,800,41,0.0453253527548439,1
793,801,41,0.0484476366816074,1
795,796,41,0.0454809072189599,1
796,796,41,0.0449939820878768,1
792,798,42,0.0438600086706725,1
792,801,42,0.0571575945116711,1
