x,y,z,signal,cytoplasm.p
548,829,1,0.0415007880424134,1
548,830,1,0.0418769345837857,1
549,829,1,0.0469387846023459,1
549,830,1,0.0480683704542444,1
549,831,1,0.0438659371554018,1
549,832,1,0.0416607895459182,1
549,833,1,0.0429714956075254,1
549,834,1,0.0442016142866523,1
550,829,1,0.0487168163813165,1
550,830,1,0.050030533994218,1
550,831,1,0.0456143940949113,1
550,832,1,0.044729595458585,1
550,833,1,0.048006209224028,1
550,834,1,0.0502397151576383,1
550,835,1,0.0456635305009483,1
551,830,1,0.0449299933812915,1
551,831,1,0.0424585830055338,1
551,832,1,0.0436596756287838,1
551,833,1,0.0471285231473564,1
551,834,1,0.0492608852927038,1
551,835,1,0.0451712364821897,1
552,832,1,0.0418936062506007,1
552,833,1,0.0447525308276881,1
552,834,1,0.0463911310257735,1
552,835,1,0.0435537901340844,1
553,833,1,0.0435842760083625,1
553,834,1,0.0454048614937277,1
553,835,1,0.0427166167214131,1
554,833,1,0.0425676990242877,1
554,834,1,0.0441730450998676,1
554,835,1,0.0415332960355139,1
528,839,2,0.0425986282508209,1
529,839,2,0.0414470126579015,1
548,829,2,0.0489331614683723,1
548,830,2,0.0451323242116959,1
548,833,2,0.0415395137805559,1
549,830,2,0.054413530609083,1
549,831,2,0.04191515749559,1
549,832,2,0.0424706967948962,1
549,833,2,0.0491532426091881,1
549,834,2,0.0511306423278822,1
549,835,2,0.0429021623435713,1
550,830,2,0.0550956280536698,1
550,831,2,0.0431725666687169,1
550,832,2,0.0448012022545306,1
550,833,2,0.0531930899852824,1
550,834,2,0.0563912114779876,1
550,835,2,0.0471060040968344,1
551,831,2,0.0412693608685794,1
551,832,2,0.0435345610816999,1
551,833,2,0.0493583200608807,1
551,834,2,0.0515837861798149,1
551,835,2,0.0447619115125994,1
552,832,2,0.044645769441948,1
552,833,2,0.0516217793053894,1
552,834,2,0.0519289034700597,1
552,835,2,0.0444184486832092,1
553,833,2,0.0557876090095061,1
553,834,2,0.0551930520083771,1
553,835,2,0.0449271305152047,1
554,834,2,0.0503657461462741,1
554,835,2,0.0428246622066727,1
527,839,3,0.0419657320930889,1
528,827,3,0.0422308756652555,1
528,838,3,0.0454667091333246,1
528,839,3,0.0523166582710888,1
528,840,3,0.0426643417058136,1
529,826,3,0.0410043146176396,1
529,827,3,0.0420471602228336,1
529,838,3,0.0456310035842759,1
529,839,3,0.0521012485491568,1
529,840,3,0.0410852372176787,1
537,832,3,0.045689915366866,1
537,833,3,0.043006644790585,1
538,832,3,0.0510163601740086,1
538,833,3,0.0471303992843386,1
539,832,3,0.0470215563056932,1
539,833,3,0.0438535719528702,1
539,838,3,0.0413570905477559,1
540,838,3,0.0445912100808874,1
540,839,3,0.0422667682743528,1
548,830,3,0.0463753812072452,1
548,832,3,0.0423647869698902,1
548,833,3,0.0464472853736058,1
548,834,3,0.0448280791333168,1
549,831,3,0.0412336169446896,1
549,832,3,0.0469721495629152,1
549,833,3,0.059942636057454,1
549,834,3,0.0598214495032162,1
549,835,3,0.044983390294366,1
550,832,3,0.0482329406486715,1
550,833,3,0.0625088129777553,1
550,834,3,0.0636648053225109,1
550,835,3,0.048147514238528,1
551,833,3,0.0543819877181477,1
551,834,3,0.0544134603215303,1
551,835,3,0.0443636703493884,1
552,834,3,0.0604445270305166,1
552,835,3,0.045762646763654,1
552,836,3,0.0412726292397776,1
526,830,4,0.0414631652781739,1
527,830,4,0.04104400275458,1
527,838,4,0.0414895771777657,1
527,839,4,0.0445783636789569,1
528,827,4,0.0428916002871019,1
528,838,4,0.0558589400619759,1
528,839,4,0.0635668461010565,1
528,840,4,0.0448459105447506,1
529,826,4,0.0423180538574804,1
529,827,4,0.0436655473427975,1
529,838,4,0.0580476944514876,1
529,839,4,0.0667223517099167,1
529,840,4,0.045651397788014,1
530,826,4,0.0423942861150638,1
530,827,4,0.0414453771206187,1
530,838,4,0.0429765184641724,1
530,839,4,0.0481533913592765,1
537,832,4,0.0568657281526606,1
537,833,4,0.0542561405584958,1
538,831,4,0.046008739705685,1
538,832,4,0.0700782038775026,1
538,833,4,0.0664411203982956,1
538,834,4,0.0425271079626325,1
538,845,4,0.0431515155466983,1
539,831,4,0.0424229580298101,1
539,832,4,0.0604050794932756,1
539,833,4,0.0578127015360404,1
539,838,4,0.048703883471629,1
539,839,4,0.0449538587087835,1
540,832,4,0.0427802269565611,1
540,833,4,0.0424464529959669,1
540,837,4,0.0433996197940821,1
540,838,4,0.0560628280320082,1
540,839,4,0.0514882059216809,1
541,838,4,0.0468179494858714,1
541,839,4,0.043175675541238,1
548,832,4,0.0429605037156379,1
548,833,4,0.0467168922053656,1
548,834,4,0.0430863535786572,1
549,833,4,0.0629600482522968,1
549,834,4,0.0584232570654994,1
549,835,4,0.0419242110730448,1
550,834,4,0.0609014664102923,1
550,835,4,0.0440906491645903,1
525,830,5,0.0422790767061687,1
526,829,5,0.0449915977178216,1
526,830,5,0.0474909744294316,1
526,846,5,0.0427001153667449,1
527,829,5,0.0445250857140484,1
527,830,5,0.0455641871553801,1
527,839,5,0.0467969713547729,1
528,825,5,0.0411930366965041,1
528,826,5,0.0429139949827231,1
528,827,5,0.0435955923043391,1
528,828,5,0.0427383463886515,1
528,837,5,0.0435648117630134,1
528,838,5,0.0706413423425972,1
528,839,5,0.0761657763720844,1
528,840,5,0.0471925442943506,1
529,825,5,0.0435924753217159,1
529,826,5,0.0462676141688287,1
529,827,5,0.0449125836951737,1
529,828,5,0.041610358226892,1
529,837,5,0.0432875706216889,1
529,838,5,0.0744105231669071,1
529,839,5,0.0832610723224746,1
529,840,5,0.0516778849926083,1
530,825,5,0.0427793889126641,1
530,826,5,0.0467594864622713,1
530,827,5,0.0434011255697293,1
530,838,5,0.0492420590420633,1
530,839,5,0.0554935907700376,1
531,826,5,0.0444353906867652,1
537,831,5,0.0420509152001655,1
537,832,5,0.0666332270931568,1
537,833,5,0.066839272350382,1
537,834,5,0.042040523455843,1
537,845,5,0.0441443164144057,1
538,831,5,0.0517895178464205,1
538,832,5,0.0908933327346997,1
538,833,5,0.0918977743024728,1
538,834,5,0.0537067784537206,1
538,845,5,0.0519016156794272,1
538,846,5,0.0414218794510944,1
539,831,5,0.0450839501552684,1
539,832,5,0.0733373944399907,1
539,833,5,0.0745334128426129,1
539,834,5,0.0468469674316461,1
539,838,5,0.0530228967866434,1
539,839,5,0.0466694643275315,1
540,832,5,0.0446949004412501,1
540,833,5,0.0457679615839813,1
540,837,5,0.0472986947190561,1
540,838,5,0.0640975171235617,1
540,839,5,0.0555987625757408,1
541,837,5,0.0412061534351755,1
541,838,5,0.0498953710304726,1
541,839,5,0.043876247798702,1
542,834,5,0.0417900429485062,1
542,835,5,0.0487127883638762,1
542,836,5,0.0426722490554867,1
542,847,5,0.0428188067128635,1
542,848,5,0.0507326417643707,1
542,849,5,0.0422446249919007,1
543,835,5,0.0475132393634171,1
543,836,5,0.0414514299602488,1
543,847,5,0.0440335621550017,1
543,848,5,0.0503421727824623,1
543,849,5,0.0417799458712313,1
546,846,5,0.0415575236142387,1
547,831,5,0.0423810071743478,1
547,845,5,0.0429384442375756,1
547,846,5,0.0445619812724547,1
547,847,5,0.041174272623314,1
548,832,5,0.0442492259934702,1
548,833,5,0.0455528546391991,1
548,845,5,0.0412134741541207,1
548,846,5,0.0432892358960132,1
549,833,5,0.0609883904859807,1
549,834,5,0.0529909051367182,1
550,835,5,0.0423848216257628,1
526,829,6,0.0438908432793464,1
526,830,6,0.0466059622270799,1
526,846,6,0.0453050396521281,1
527,829,6,0.0439782188173922,1
527,830,6,0.0435870739936315,1
527,846,6,0.0440438890185063,1
528,828,6,0.0409978454594284,1
528,837,6,0.0421653054887355,1
528,838,6,0.0698042446242133,1
528,839,6,0.0719785035576748,1
528,840,6,0.0418407256807014,1
529,825,6,0.042082571632532,1
529,826,6,0.0438696840226315,1
529,837,6,0.0428683783610534,1
529,838,6,0.0757021921152159,1
529,839,6,0.08207708931156,1
529,840,6,0.0484659330722356,1
530,826,6,0.0450437483785202,1
530,838,6,0.0466469074298658,1
530,839,6,0.051998455706774,1
531,826,6,0.0431190210704349,1
537,832,6,0.0604304857401911,1
537,833,6,0.0627392263888107,1
537,845,6,0.0436936812874292,1
538,831,6,0.048697092612696,1
538,832,6,0.0899902944784607,1
538,833,6,0.0950733010503685,1
538,834,6,0.0520798703196816,1
538,845,6,0.0525428057683719,1
538,846,6,0.0412043178487043,1
539,832,6,0.0684705815665638,1
539,833,6,0.0729986192496888,1
539,834,6,0.0430987809586392,1
539,838,6,0.0491682625185159,1
539,839,6,0.0416480647955212,1
540,833,6,0.0415713891856826,1
540,837,6,0.0444437170583868,1
540,838,6,0.0608586072233804,1
540,839,6,0.0502966318550801,1
541,838,6,0.0452488582706217,1
541,848,6,0.0421139577281575,1
542,835,6,0.0497956113663234,1
542,836,6,0.0421419538010514,1
542,847,6,0.0471181584367079,1
542,848,6,0.0640250614702495,1
542,849,6,0.0497504813507875,1
543,835,6,0.0489376003976589,1
543,836,6,0.0410421996085178,1
543,847,6,0.0477514871332255,1
543,848,6,0.0629267427658104,1
543,849,6,0.049368268452948,1
544,848,6,0.0441030359940611,1
545,845,6,0.0439999944418766,1
545,846,6,0.0421564492571017,1
546,844,6,0.0444905826357997,1
546,845,6,0.054068656621905,1
546,846,6,0.0533697658589697,1
546,847,6,0.0429260601114722,1
547,829,6,0.0450950096313411,1
547,830,6,0.0464536599139577,1
547,831,6,0.0445969952871439,1
547,832,6,0.0409957097991748,1
547,844,6,0.0483774572636541,1
547,845,6,0.0618706993209228,1
547,846,6,0.0611867581797626,1
547,847,6,0.0468886317301629,1
548,831,6,0.0470334403088258,1
548,832,6,0.0451919334630777,1
548,833,6,0.0427320583560568,1
548,844,6,0.0432024118449189,1
548,845,6,0.0537275835693049,1
548,846,6,0.053411116566867,1
548,847,6,0.0434777092650759,1
549,833,6,0.0550718870810786,1
549,834,6,0.0465092952152473,1
525,845,7,0.0410562003483321,1
526,829,7,0.0420078884044743,1
526,830,7,0.0420156957295532,1
526,845,7,0.0450947474047024,1
526,846,7,0.0480200937190437,1
527,829,7,0.0425190654445889,1
527,845,7,0.04732803706892,1
527,846,7,0.0510109804728635,1
527,847,7,0.0417575944294887,1
528,838,7,0.0611559343845583,1
528,839,7,0.0602313286631256,1
528,845,7,0.0421807903772577,1
528,846,7,0.0466074869262989,1
528,847,7,0.0417561292043527,1
529,838,7,0.0685266764403131,1
529,839,7,0.0709569929280774,1
529,840,7,0.0429298394191108,1
529,846,7,0.0416453208776004,1
529,847,7,0.0436401329857798,1
530,838,7,0.0428606115864857,1
530,839,7,0.0455627922177968,1
534,820,7,0.0433985519639553,1
537,832,7,0.0501426102002854,1
537,833,7,0.0519314554488944,1
538,831,7,0.043994598520527,1
538,832,7,0.0766860394300627,1
538,833,7,0.0814215984090185,1
538,834,7,0.0448344482669339,1
538,845,7,0.0463137984976544,1
539,832,7,0.057469303587468,1
539,833,7,0.0618446604860335,1
539,838,7,0.0432363715463184,1
540,838,7,0.051926443405717,1
540,839,7,0.0422334763047035,1
542,835,7,0.0440162822305195,1
542,847,7,0.0444798340469791,1
542,848,7,0.0644454405091777,1
542,849,7,0.0496885255764942,1
543,835,7,0.0440465058781588,1
543,847,7,0.0446268161330392,1
543,848,7,0.0632831979789712,1
543,849,7,0.0494150313023994,1
544,848,7,0.0434557741419144,1
545,845,7,0.0462723126213866,1
545,846,7,0.0435407463863331,1
546,828,7,0.043943923898434,1
546,829,7,0.0509722898784973,1
546,830,7,0.0462550381036392,1
546,844,7,0.048308018568371,1
546,845,7,0.0663535637346333,1
546,846,7,0.0627953104490903,1
546,847,7,0.0458872233406233,1
547,828,7,0.052857650750364,1
547,829,7,0.065664361840494,1
547,830,7,0.060141420069817,1
547,831,7,0.0478849956361162,1
547,832,7,0.0411392883456663,1
547,844,7,0.0559493298546834,1
547,845,7,0.0814131855296398,1
547,846,7,0.0765556181727537,1
547,847,7,0.0515266207725714,1
548,829,7,0.0656411020673018,1
548,830,7,0.0607396428371534,1
548,831,7,0.0523044985244804,1
548,832,7,0.0466542551824851,1
548,833,7,0.041937484607026,1
548,844,7,0.0473244199633259,1
548,845,7,0.0652193010571161,1
548,846,7,0.0616736562771715,1
548,847,7,0.0458260569496136,1
549,831,7,0.0537034695320112,1
549,832,7,0.0530411174829841,1
549,833,7,0.0503302022715726,1
549,834,7,0.042571502662233,1
549,845,7,0.0426233802828233,1
549,846,7,0.0424555011666869,1
550,833,7,0.053154853556641,1
550,834,7,0.0449074824408717,1
525,845,8,0.0426284490967163,1
526,844,8,0.0414657010368041,1
526,845,8,0.0478214610952557,1
526,846,8,0.0457861714668523,1
527,844,8,0.0419853288034411,1
527,845,8,0.0523719529480849,1
527,846,8,0.0534882706727371,1
527,847,8,0.042683814061265,1
528,838,8,0.0461169771300308,1
528,839,8,0.0439115537770714,1
528,845,8,0.0485043317029216,1
528,846,8,0.0525844051860708,1
528,847,8,0.0449982209679751,1
529,838,8,0.0526103683266727,1
529,839,8,0.0515538707160602,1
529,845,8,0.0427615466877607,1
529,846,8,0.0475161698136891,1
529,847,8,0.0471152820537841,1
529,848,8,0.0424333714010718,1
530,847,8,0.0440398204505549,1
530,848,8,0.0460101833038818,1
530,849,8,0.0411988002758213,1
531,848,8,0.0409994837000786,1
538,832,8,0.0525682066085525,1
538,833,8,0.054486797272618,1
539,832,8,0.0415664987940386,1
539,833,8,0.0438994670213831,1
542,848,8,0.0515732971142656,1
542,849,8,0.0432092675846697,1
543,848,8,0.0516918235549723,1
543,849,8,0.0438825898986449,1
546,828,8,0.0434428925962077,1
546,829,8,0.0530286171120821,1
546,830,8,0.0441471198064095,1
546,844,8,0.0420322565583045,1
546,845,8,0.0616098568063049,1
546,846,8,0.0576362148980718,1
546,847,8,0.0423880034892039,1
547,828,8,0.0570179169243516,1
547,829,8,0.0745789753969344,1
547,830,8,0.0618268398880693,1
547,831,8,0.0448329803384305,1
547,844,8,0.0521664862114853,1
547,845,8,0.0812051776276753,1
547,846,8,0.0748603580971304,1
547,847,8,0.0486623705616871,1
548,829,8,0.0684689487326484,1
548,830,8,0.0603397715433944,1
548,831,8,0.0493330652025402,1
548,832,8,0.0428570999122206,1
548,844,8,0.0429765509045813,1
548,845,8,0.0624375305858989,1
548,846,8,0.0580162651019836,1
548,847,8,0.0429564756981976,1
549,830,8,0.0550649123931618,1
549,831,8,0.052389054450318,1
549,832,8,0.0492625127198843,1
549,833,8,0.0437376596684486,1
549,848,8,0.0411692551734018,1
550,832,8,0.05097564746082,1
550,833,8,0.046197207668013,1
525,845,9,0.0420168716943764,1
526,844,9,0.0454999497389931,1
526,845,9,0.0467440826747714,1
526,846,9,0.0422174750730061,1
527,844,9,0.0451947963291644,1
527,845,9,0.0507304898839126,1
527,846,9,0.0494558359300799,1
528,844,9,0.0422779412918567,1
528,845,9,0.0509184874603113,1
528,846,9,0.0533539998202369,1
528,847,9,0.0464277778743781,1
529,845,9,0.0470099047921578,1
529,846,9,0.0499623929152915,1
529,847,9,0.0481069799475884,1
529,848,9,0.0455793638600176,1
530,846,9,0.0435221120747787,1
530,847,9,0.0471949935452237,1
530,848,9,0.0503302293052467,1
530,849,9,0.0438363623159407,1
531,848,9,0.0449399201464196,1
543,848,9,0.0414023908754386,1
546,828,9,0.0437600759910091,1
546,829,9,0.0532779811286788,1
546,830,9,0.0420242572941394,1
546,845,9,0.051396480665473,1
546,846,9,0.048468074139224,1
547,828,9,0.0610878581864496,1
547,829,9,0.0785459237674613,1
547,830,9,0.0613314748439335,1
547,831,9,0.0420466006257798,1
547,844,9,0.0477283895620778,1
547,845,9,0.0710891767809374,1
547,846,9,0.0652853821700765,1
547,847,9,0.0431670247655272,1
548,828,9,0.0571354539325864,1
548,829,9,0.0723809268302684,1
548,830,9,0.0604889920176697,1
548,831,9,0.047217442308193,1
548,845,9,0.0559400843381426,1
548,846,9,0.0514704610180043,1
549,829,9,0.0560067115313197,1
549,830,9,0.0554538296421771,1
549,831,9,0.0507294193504184,1
549,832,9,0.0441610340384667,1
550,832,9,0.0450558297274737,1
526,844,10,0.0446125937170973,1
526,845,10,0.0432428461112644,1
527,844,10,0.0439563215413745,1
527,845,10,0.0451229029762734,1
527,846,10,0.0429194368613186,1
528,844,10,0.0422036878992171,1
528,845,10,0.0482105135126414,1
528,846,10,0.0495255341486343,1
528,847,10,0.0463222330039723,1
528,848,10,0.0422996898826669,1
529,845,10,0.0469364542996388,1
529,846,10,0.0489037920848343,1
529,847,10,0.0481668000616281,1
529,848,10,0.0477659988094802,1
529,849,10,0.0411265230447582,1
530,845,10,0.0420399260116455,1
530,846,10,0.0450356463863936,1
530,847,10,0.0469556860553907,1
530,848,10,0.0491873320722232,1
530,849,10,0.042639297710131,1
531,847,10,0.0412097083633191,1
531,848,10,0.0436654148777944,1
546,828,10,0.042880459710007,1
546,829,10,0.0480713117179861,1
547,827,10,0.041251637591842,1
547,828,10,0.0585137171457596,1
547,829,10,0.0684551020847764,1
547,830,10,0.0534006545349918,1
547,845,10,0.0531514256867656,1
547,846,10,0.049751065278148,1
548,828,10,0.0583040439694707,1
548,829,10,0.0671622166211333,1
548,830,10,0.0552683299772649,1
548,831,10,0.0426769150676357,1
548,845,10,0.0453969676608917,1
548,846,10,0.0424460096437117,1
549,829,10,0.0527376212373775,1
549,830,10,0.0510403985170148,1
549,831,10,0.0456839409248908,1
550,831,10,0.0445152049061663,1
528,845,11,0.0415097875525199,1
528,846,11,0.0435277188587862,1
528,847,11,0.0437560668971406,1
528,848,11,0.0421108623724735,1
529,846,11,0.0454099816716015,1
529,847,11,0.0471515558376862,1
529,848,11,0.0475184730827221,1
530,846,11,0.0421955642801512,1
530,847,11,0.0437362322904564,1
530,848,11,0.0447383841060336,1
546,829,11,0.0417417770267751,1
547,828,11,0.050694562131039,1
547,829,11,0.0538353452009865,1
547,830,11,0.0430622043975872,1
548,827,11,0.0425780204810575,1
548,828,11,0.0551479436197804,1
548,829,11,0.0576896442515552,1
548,830,11,0.0479485139567722,1
549,828,11,0.0444663929042185,1
549,829,11,0.0467835193985427,1
549,830,11,0.0445678394696313,1
524,844,12,0.041440911157658,1
529,846,12,0.0421487473633517,1
529,847,12,0.0451806766411841,1
529,848,12,0.0440422048206102,1
547,828,12,0.0428275818434751,1
547,829,12,0.0422301998234031,1
548,828,12,0.047384796971052,1
548,829,12,0.0468337587784828,1
549,848,12,0.0436555665103212,1
550,847,12,0.042338788685512,1
523,844,13,0.042516162027991,1
524,844,13,0.0431549515266759,1
529,847,13,0.0416176681323676,1
549,849,13,0.0469650829605065,1
549,851,13,0.0449020838161548,1
523,844,14,0.041551249098481,1
524,844,14,0.0412427191827578,1
550,848,14,0.0505931371925655,1
550,859,14,0.0428965447460941,1
551,847,14,0.0427719195085114,1
548,858,15,0.041214287867711,1
548,859,15,0.0410747995161102,1
548,860,15,0.0413026528382287,1
549,859,15,0.0416473781401991,1
550,849,15,0.0481794788547792,1
550,850,15,0.049175734626036,1
550,851,15,0.0430152550157846,1
551,848,15,0.0550464105466105,1
552,847,15,0.0416478890766396,1
554,848,15,0.0422930585224112,1
548,858,16,0.0421139604315249,1
548,859,16,0.0434871494240703,1
548,860,16,0.0441581279185014,1
549,859,16,0.0446241965700193,1
549,860,16,0.0454431952435959,1
551,848,16,0.0419162172156146,1
551,849,16,0.0487962467225455,1
552,848,16,0.0466414898815769,1
554,848,16,0.042554890469501,1
555,847,16,0.0415495081298693,1
555,848,16,0.0412533677469842,1
547,859,17,0.0411997491577821,1
548,858,17,0.0418178173452724,1
548,859,17,0.0452624129548135,1
548,860,17,0.0458041488601262,1
549,859,17,0.0469012726761702,1
549,860,17,0.0477234856535968,1
554,847,17,0.0413710777707332,1
554,848,17,0.0424602617966952,1
555,846,17,0.0413540600728897,1
555,847,17,0.0419701953526822,1
548,859,18,0.0454525380813635,1
549,859,18,0.0476907695012058,1
549,860,18,0.0486441877124901,1
553,848,18,0.0415222906267894,1
554,848,18,0.0410299830911938,1
554,849,18,0.0411611748082145,1
547,859,19,0.041086453733013,1
548,859,19,0.0452661165681646,1
549,858,19,0.0426462183306996,1
549,859,19,0.0482210079849255,1
549,860,19,0.0495742974899688,1
550,859,19,0.0520304797971082,1
554,852,19,0.0438466918828128,1
548,859,20,0.04512920993244,1
549,858,20,0.0429692437024732,1
549,859,20,0.0496216442667806,1
549,860,20,0.0517963789929061,1
550,858,20,0.0481393176285421,1
550,859,20,0.0542966315955569,1
554,850,20,0.0416030131776401,1
554,851,20,0.0430071881674344,1
548,859,21,0.0455620136479828,1
548,860,21,0.048037968384356,1
549,858,21,0.0427041541976548,1
549,859,21,0.0508114989917088,1
549,860,21,0.0550896644251642,1
550,858,21,0.0473221761683759,1
550,859,21,0.0566037934776092,1
550,860,21,0.0637992005299119,1
551,858,21,0.0499949144252291,1
551,859,21,0.0580887531957047,1
547,860,22,0.0417459456193207,1
548,859,22,0.0452239629601467,1
548,860,22,0.0482595742243909,1
548,861,22,0.0477914104631305,1
549,858,22,0.0418707438724177,1
549,859,22,0.050838170414572,1
549,860,22,0.0562411259261412,1
550,858,22,0.0463883627775461,1
550,859,22,0.0571955551968367,1
550,860,22,0.066041476187399,1
551,857,22,0.0418313504025249,1
551,858,22,0.048635937035156,1
551,859,22,0.0576233522759369,1
547,860,23,0.041797882713994,1
548,859,23,0.045018963906109,1
548,860,23,0.0487682722765909,1
548,861,23,0.0496372318832644,1
549,859,23,0.050285840012381,1
549,860,23,0.0569171516075261,1
549,861,23,0.0579491891498165,1
550,858,23,0.0430393636463435,1
550,859,23,0.0560257432378833,1
550,860,23,0.0657996545658751,1
551,858,23,0.0462564546681619,1
551,859,23,0.0564893707486303,1
551,860,23,0.0652174789874821,1
552,858,23,0.0494913473643725,1
552,859,23,0.0555974271122404,1
548,859,24,0.0435056972278676,1
548,860,24,0.0480787946389759,1
548,861,24,0.0491210887572183,1
549,859,24,0.0493780005756226,1
549,860,24,0.0562578219232629,1
549,861,24,0.0580654934225125,1
550,859,24,0.055176815583715,1
550,860,24,0.0639998228321134,1
550,861,24,0.0646236951494322,1
551,858,24,0.0448237429319918,1
551,859,24,0.0559253023251468,1
551,860,24,0.0632143269908441,1
552,857,24,0.0416823813414187,1
552,858,24,0.0487601513608925,1
552,859,24,0.0544760378703278,1
553,856,24,0.041927644349655,1
554,855,24,0.0416205445152914,1
548,860,25,0.0464920261042348,1
548,861,25,0.0465407515984255,1
549,859,25,0.0461426429002175,1
549,860,25,0.0543600201545772,1
549,861,25,0.0553299559407342,1
550,859,25,0.0508134237893045,1
550,860,25,0.059824477274715,1
550,861,25,0.0607284454893428,1
551,858,25,0.0425031966778945,1
551,859,25,0.0526455986107546,1
551,860,25,0.0591393466518946,1
552,858,25,0.0472863403299942,1
552,859,25,0.0518346046080779,1
553,857,25,0.0457006423287473,1
553,858,25,0.0524988814547006,1
554,856,25,0.0451001811731957,1
533,851,26,0.0412003709322863,1
548,860,26,0.0428907919802465,1
548,861,26,0.0430133329215564,1
549,859,26,0.0415251616029784,1
549,860,26,0.0499114831002339,1
549,861,26,0.0512576465287854,1
550,859,26,0.0452927906943952,1
550,860,26,0.0542970857612817,1
550,861,26,0.0561883453808361,1
551,859,26,0.0468021347865252,1
551,860,26,0.0529862715649781,1
551,861,26,0.0556148800522368,1
552,858,26,0.0435136910852978,1
552,859,26,0.0464743298611715,1
552,860,26,0.0488395817021214,1
553,857,26,0.0416935029949418,1
553,858,26,0.0472798306212719,1
553,859,26,0.047074612594474,1
554,857,26,0.0457132021737323,1
554,858,26,0.0496701102377,1
533,851,27,0.0455044751760368,1
533,852,27,0.0411403696926302,1
549,860,27,0.0445491024301154,1
549,861,27,0.0453436085949609,1
549,862,27,0.0430901923603789,1
550,860,27,0.0479672374794512,1
550,861,27,0.049954034103261,1
551,859,27,0.0410315402308217,1
551,860,27,0.0472155391375367,1
551,861,27,0.0508818514251764,1
552,859,27,0.0417761287164489,1
552,860,27,0.0454757978545557,1
553,858,27,0.0427557182276256,1
553,859,27,0.0425929403657911,1
533,851,28,0.0416199605879309,1
550,861,28,0.0436033752991114,1
550,862,28,0.0459794406096998,1
551,861,28,0.0455457718165859,1
552,860,28,0.0419379117390767,1
542,834,37,0.0464416407424546,1
542,835,37,0.0463158854972946,1
543,834,37,0.0442979893348047,1
543,835,37,0.0463204325612776,1
541,834,38,0.0498965875458069,1
541,835,38,0.0505176429542849,1
542,833,38,0.0473608883896815,1
542,834,38,0.0735322910100187,1
542,835,38,0.0742143776411359,1
542,836,38,0.0471133356292492,1
543,833,38,0.0458168438734817,1
543,834,38,0.0713776747441555,1
543,835,38,0.0719529026683058,1
543,836,38,0.0460943283178731,1
544,834,38,0.0503046608562867,1
544,835,38,0.0505727646157667,1
549,850,38,0.0424866899164915,1
549,851,38,0.043708609282265,1
550,851,38,0.0411314945374244,1
541,834,39,0.0580756310502985,1
541,835,39,0.0572494711564539,1
542,833,39,0.0566685283135996,1
542,834,39,0.0962831444739234,1
542,835,39,0.0935836158460411,1
542,836,39,0.0543292287997819,1
543,833,39,0.0577033341041174,1
543,834,39,0.0971566889917235,1
543,835,39,0.0934794496930142,1
543,836,39,0.0543306129238956,1
544,834,39,0.0626071993312604,1
544,835,39,0.0602402605890469,1
548,849,39,0.0524731399902264,1
548,850,39,0.0741123309281582,1
548,851,39,0.0750761462904998,1
548,852,39,0.0506023232350233,1
549,849,39,0.0605398423586444,1
549,850,39,0.0927316117597607,1
549,851,39,0.096472520767701,1
549,852,39,0.0658430652397385,1
550,849,39,0.0494828804176456,1
550,850,39,0.0729136361918005,1
550,851,39,0.0775449587301769,1
550,852,39,0.0590775152325021,1
550,853,39,0.0429227809268043,1
551,851,39,0.0455788123730661,1
551,852,39,0.0437347427350137,1
551,853,39,0.0434624163156398,1
551,854,39,0.0427105855087223,1
541,834,40,0.0595826772801304,1
541,835,40,0.0564237275811903,1
542,833,40,0.0608900257594148,1
542,834,40,0.105216800550397,1
542,835,40,0.0965853485099082,1
542,836,40,0.0548720920093044,1
543,833,40,0.0656196481435392,1
543,834,40,0.112632818603528,1
543,835,40,0.101995727468384,1
543,836,40,0.0571906242546816,1
544,834,40,0.0692392408356061,1
544,835,40,0.0630698103758615,1
546,843,40,0.0433469284599015,1
546,844,40,0.0447666451089336,1
546,845,40,0.0424021069569798,1
547,843,40,0.0452856781347405,1
547,844,40,0.0477625925665441,1
547,845,40,0.0454211736126773,1
547,849,40,0.0474238876637949,1
547,850,40,0.0600735222939573,1
547,851,40,0.0571612278374696,1
548,844,40,0.0415119259161409,1
548,848,40,0.0459270601627713,1
548,849,40,0.0870584168284578,1
548,850,40,0.136365475636518,1
548,851,40,0.135857415579026,1
548,852,40,0.0779744210836014,1
549,848,40,0.0502923172806944,1
549,849,40,0.111319857933501,1
549,850,40,0.187539798975004,1
549,851,40,0.191886748888829,1
549,852,40,0.110712757307591,1
549,853,40,0.0507795884428059,1
550,850,40,0.138445835806374,1
550,851,40,0.145391673386157,1
550,852,40,0.0908839250161142,1
550,853,40,0.0517565367640234,1
550,854,40,0.0410002811934645,1
551,851,40,0.0702581129786117,1
551,852,40,0.056398467316115,1
551,853,40,0.047604753756967,1
551,854,40,0.0428687297988167,1
541,834,41,0.053593691188242,1
541,835,41,0.0503364632704932,1
542,833,41,0.0548447771849978,1
542,834,41,0.0927136938405698,1
542,835,41,0.0823277076906348,1
542,836,41,0.0506299300230102,1
543,833,41,0.0620419468328515,1
543,834,41,0.104808884035227,1
543,835,41,0.0919476460244452,1
543,836,41,0.0551699436237598,1
544,834,41,0.0657947074035155,1
544,835,41,0.0588390457865662,1
544,839,41,0.0420763863278988,1
545,843,41,0.0413124092912099,1
546,842,41,0.0459761208745208,1
546,843,41,0.0542095777582328,1
546,844,41,0.0575919553668418,1
546,845,41,0.0475224740664883,1
547,843,41,0.0586620941694031,1
547,844,41,0.0641872202609472,1
547,845,41,0.0530488328935712,1
547,849,41,0.0619633058749062,1
547,850,41,0.0828061766884606,1
547,851,41,0.0760917852060835,1
547,852,41,0.0460140923731561,1
548,844,41,0.0518566046120573,1
548,845,41,0.0456436769706921,1
548,848,41,0.0580859579138032,1
548,849,41,0.125324566291197,1
548,850,41,0.197594898360739,1
548,851,41,0.188633949086898,1
548,852,41,0.100423935589092,1
548,853,41,0.0444228200283105,1
549,848,41,0.067402967709163,1
549,849,41,0.164402596461123,1
549,850,41,0.275870382659278,1
549,851,41,0.271427149611792,1
549,852,41,0.146309607196823,1
549,853,41,0.0615464412136104,1
549,854,41,0.0412572768162585,1
550,849,41,0.119431138830503,1
550,850,41,0.199465909758395,1
550,851,41,0.201598304344151,1
550,852,41,0.115898789211479,1
550,853,41,0.0589933377781019,1
550,854,41,0.0446857765762427,1
550,855,41,0.0419265846296304,1
551,853,41,0.049824153519434,1
551,854,41,0.0432342575130041,1
551,855,41,0.0451431593082736,1
551,856,41,0.0466693453793655,1
551,857,41,0.0424741381816087,1
552,855,41,0.0439683217893057,1
552,856,41,0.0483917418570464,1
542,834,42,0.0678768193554532,1
542,835,42,0.061884837932475,1
543,833,42,0.0501135976612455,1
543,834,42,0.0797220021320702,1
543,835,42,0.0717184558330753,1
543,836,42,0.0489634013362161,1
543,838,42,0.0439249219289119,1
543,839,42,0.0439023920649203,1
544,834,42,0.0544572602803007,1
544,835,42,0.0507650767665511,1
544,839,42,0.044559969967102,1
545,841,42,0.0417037839012005,1
545,842,42,0.0447239237937596,1
545,843,42,0.0466501406572877,1
545,844,42,0.0460043278100726,1
546,842,42,0.0526381210964997,1
546,843,42,0.0663821815820314,1
546,844,42,0.0706953069628277,1
546,845,42,0.0518231585504656,1
547,842,42,0.0554854860745436,1
547,843,42,0.0761212843512571,1
547,844,42,0.0823922857313154,1
547,845,42,0.059587710950247,1
547,846,42,0.0426412982020141,1
547,848,42,0.0432984597856147,1
547,849,42,0.0689450333604189,1
547,850,42,0.0942127867634827,1
547,851,42,0.0830620936676581,1
547,852,42,0.0496097061962998,1
548,843,42,0.0594818578959566,1
548,844,42,0.0630117798910469,1
548,848,42,0.06553125343598,1
548,849,42,0.146559322651182,1
548,850,42,0.227994935316852,1
548,851,42,0.207013971089281,1
548,852,42,0.10827068657833,1
548,853,42,0.0474608643232234,1
549,849,42,0.191995791916663,1
549,850,42,0.315235542888513,1
549,851,42,0.295279457686331,1
549,852,42,0.156388463775353,1
549,853,42,0.0657413645577892,1
549,854,42,0.0440133004162667,1
550,850,42,0.230072808388692,1
550,851,42,0.221652986762497,1
550,852,42,0.125074342603764,1
550,853,42,0.0619898421293988,1
550,854,42,0.0470088558856028,1
550,855,42,0.0438550506948433,1
551,854,42,0.0428095990434664,1
551,855,42,0.0483193078306735,1
551,856,42,0.0525707910277961,1
532,831,43,0.0424539088832826,1
533,831,43,0.0444798529705509,1
542,838,43,0.0424768415490183,1
542,839,43,0.0423074512504999,1
543,834,43,0.0522943717101641,1
543,835,43,0.05171177981319,1
543,839,43,0.0466762714066689,1
544,840,43,0.0410439595007015,1
544,842,43,0.0415491945392497,1
545,841,43,0.0444775442947831,1
545,842,43,0.0489232509234487,1
545,843,43,0.0512523911825411,1
545,844,43,0.0493159096329588,1
546,842,43,0.0576329978908544,1
546,843,43,0.0738521426284534,1
546,844,43,0.0752827105942676,1
546,845,43,0.0540466512111908,1
547,842,43,0.0632885452397074,1
547,843,43,0.0879098694277867,1
547,844,43,0.0904963161969252,1
547,845,43,0.0633742473933266,1
547,848,43,0.0478275652988666,1
547,849,43,0.0724313392257227,1
547,850,43,0.0952750046995339,1
547,851,43,0.081306386296756,1
547,852,43,0.0510579001176246,1
548,843,43,0.0678949265103627,1
548,844,43,0.0699244093055702,1
548,848,43,0.0691222282806488,1
548,849,43,0.146098182238452,1
548,850,43,0.218141139481907,1
548,851,43,0.187974176050379,1
548,852,43,0.100526717618005,1
548,853,43,0.0476844165877932,1
549,849,43,0.190979260889834,1
549,850,43,0.298507256746459,1
549,851,43,0.263512857691193,1
549,852,43,0.140220391054856,1
549,853,43,0.0632982989893212,1
549,854,43,0.043946973296872,1
550,850,43,0.219615145155259,1
550,851,43,0.200313274866201,1
550,852,43,0.114657781368426,1
550,853,43,0.0608708967316245,1
550,854,43,0.047748659410915,1
550,855,43,0.044647413089333,1
532,830,44,0.0445025666635264,1
532,831,44,0.0470018920111557,1
533,830,44,0.0436414468223408,1
533,831,44,0.0457075953897248,1
541,836,44,0.0416806701098484,1
541,837,44,0.0445905774929135,1
541,838,44,0.0447163868054216,1
541,839,44,0.043329778297055,1
542,836,44,0.0419319886610822,1
542,838,44,0.0473848294114609,1
542,839,44,0.0473746160893874,1
542,840,44,0.0424218145053958,1
543,839,44,0.0516075758130194,1
543,840,44,0.0466155105207706,1
543,841,44,0.0414117688569825,1
544,841,44,0.0442302916081334,1
544,842,44,0.0431513533446537,1
545,842,44,0.0503805551929439,1
545,843,44,0.0520747339216034,1
545,844,44,0.0487806645127965,1
546,842,44,0.0588241664523437,1
546,843,44,0.0719970810985136,1
546,844,44,0.069170759132386,1
546,845,44,0.0518111123452884,1
546,849,44,0.0411761487602963,1
547,842,44,0.0638594369625327,1
547,843,44,0.085198181053296,1
547,844,44,0.0838513201559527,1
547,847,44,0.0413373370420939,1
547,848,44,0.0499137755557972,1
547,849,44,0.0697784112452472,1
547,850,44,0.0839249977313341,1
547,851,44,0.0699375963317943,1
547,852,44,0.0471354059207812,1
548,843,44,0.068002461059182,1
548,848,44,0.0657022143909633,1
548,849,44,0.122032848812037,1
548,850,44,0.169227750442768,1
548,851,44,0.138414022578698,1
548,852,44,0.0786882939087206,1
548,853,44,0.043625456404113,1
549,850,44,0.231139449033825,1
549,851,44,0.192091642511538,1
549,852,44,0.105801917392532,1
549,853,44,0.0548257941390475,1
549,854,44,0.041665415007556,1
550,851,44,0.146459968492145,1
550,853,44,0.0532751750333076,1
550,854,44,0.045256535834065,1
531,830,45,0.0444089084996207,1
531,831,45,0.0477473888282325,1
532,830,45,0.0489139567462945,1
532,831,45,0.0495162615984194,1
532,832,45,0.0430995081644724,1
533,830,45,0.0462182560866642,1
533,831,45,0.0455153967803716,1
540,836,45,0.0412517105827621,1
540,837,45,0.0441729531853757,1
540,838,45,0.0491877754244784,1
540,839,45,0.0485470827551371,1
541,836,45,0.0456842653289799,1
541,837,45,0.0516726512733034,1
541,838,45,0.0590110718683089,1
541,839,45,0.0567579557075093,1
541,840,45,0.0441658244055165,1
542,835,45,0.0420740208814154,1
542,836,45,0.046728305822569,1
542,837,45,0.050665463084242,1
542,839,45,0.056792147898506,1
542,840,45,0.0484737187703753,1
543,836,45,0.0450925198299569,1
543,839,45,0.0541268060548855,1
543,840,45,0.052810039043546,1
543,841,45,0.0481199993650331,1
543,842,45,0.0410806279762453,1
544,840,45,0.0497377052364097,1
544,841,45,0.0483261906040984,1
544,842,45,0.0444955135779548,1
545,843,45,0.0499321530474477,1
545,844,45,0.0462850508886207,1
546,843,45,0.0626858889498192,1
546,849,45,0.0411818934160417,1
547,843,45,0.0700781389966848,1
547,847,45,0.0430765619818996,1
547,848,45,0.0494365933608584,1
547,849,45,0.0610846736196411,1
547,850,45,0.0655062310672367,1
547,851,45,0.0546972598321905,1
547,852,45,0.0413323006686098,1
548,848,45,0.0592886806676011,1
548,849,45,0.0894979950529674,1
548,850,45,0.109424840633247,1
548,851,45,0.0867788561978958,1
548,852,45,0.0562388064369038,1
549,850,45,0.146128805984468,1
549,851,45,0.115709856269957,1
549,852,45,0.0696133922918301,1
549,853,45,0.0449342430748594,1
531,830,46,0.0468949467964318,1
531,831,46,0.0500765236805902,1
532,829,46,0.0428454700256245,1
532,830,46,0.0524722586924508,1
532,831,46,0.0512769539788248,1
532,832,46,0.0433208625913381,1
533,830,46,0.0485735757557512,1
533,831,46,0.0457112719694019,1
539,835,46,0.0411695092899383,1
540,835,46,0.0429685219033748,1
540,836,46,0.0430367630068954,1
540,837,46,0.0454365071126245,1
540,838,46,0.0560242996396865,1
540,839,46,0.0558059865011566,1
540,840,46,0.0417713356460317,1
541,835,46,0.0444275698448492,1
541,836,46,0.0467847251004074,1
541,837,46,0.0558177785897973,1
541,838,46,0.0728487445605004,1
541,839,46,0.0700470448647395,1
541,840,46,0.0475774659663345,1
542,835,46,0.0432522267961757,1
542,836,46,0.0472917038109349,1
542,837,46,0.0525765059465,1
542,838,46,0.0633756477376448,1
542,839,46,0.0629548037195221,1
542,840,46,0.0506682367392043,1
542,841,46,0.0432613966184291,1
543,836,46,0.0469424665887578,1
543,839,46,0.052210967418843,1
543,840,46,0.0555824504567912,1
543,841,46,0.0537778932367976,1
543,842,46,0.0437241509415029,1
544,840,46,0.053174052871984,1
544,841,46,0.0530502170176849,1
544,842,46,0.045984009300622,1
545,841,46,0.0482439271338241,1
547,848,46,0.0465878929193141,1
547,849,46,0.0523110406736117,1
547,850,46,0.052216168697739,1
547,851,46,0.045226988028278,1
548,849,46,0.0649612538243998,1
548,850,46,0.068671690474899,1
548,851,46,0.0561622092247201,1
548,852,46,0.0431447003574587,1
549,851,46,0.064836152794153,1
549,852,46,0.0465293271677525,1
531,830,47,0.0454669470296567,1
531,831,47,0.047879259090473,1
532,829,47,0.0427371515002565,1
532,830,47,0.0512550783297463,1
532,831,47,0.0502276689524611,1
532,832,47,0.0419442457289174,1
533,830,47,0.0475628785957922,1
533,831,47,0.0453656410393492,1
539,835,47,0.0410258172020156,1
540,835,47,0.0457537580916112,1
540,836,47,0.0449735094864839,1
540,837,47,0.0460673378976556,1
540,838,47,0.0592841552305574,1
540,839,47,0.0582751233449228,1
540,840,47,0.0416523982934788,1
541,835,47,0.0462317567035077,1
541,836,47,0.0481369711056306,1
541,837,47,0.0587407243138789,1
541,838,47,0.0812007116647146,1
541,839,47,0.0772558335857197,1
541,840,47,0.0504237117502708,1
542,835,47,0.0434598129728244,1
542,836,47,0.048233254239291,1
542,837,47,0.0552725201967498,1
542,838,47,0.0684092583802443,1
542,839,47,0.0662371999878543,1
542,840,47,0.0524806607583599,1
542,841,47,0.0459262761862225,1
543,836,47,0.0477404519874595,1
543,837,47,0.049960376203204,1
543,838,47,0.0499147325478602,1
543,839,47,0.0527010284561211,1
543,840,47,0.057934818048667,1
543,841,47,0.057834333882052,1
543,842,47,0.0471048524623179,1
544,839,47,0.0485921911437338,1
544,840,47,0.0571407633461789,1
544,841,47,0.0573567894358803,1
544,842,47,0.0485682933758329,1
545,840,47,0.0491787245503911,1
545,841,47,0.0505391563521305,1
547,849,47,0.0458773614563131,1
547,850,47,0.0454163616186882,1
547,851,47,0.0418171631303593,1
548,851,47,0.0449770698213623,1
531,830,48,0.0429535533580278,1
532,830,48,0.0477626087867486,1
532,831,48,0.0467622114566202,1
533,830,48,0.0453451711413237,1
540,835,48,0.0462231383682059,1
540,836,48,0.0440939499761974,1
540,837,48,0.0428911299011727,1
540,838,48,0.0536855137656766,1
540,839,48,0.0533257928846851,1
541,835,48,0.0456746143073276,1
541,836,48,0.0479026702522402,1
541,837,48,0.0555204784622935,1
541,838,48,0.0733409791051759,1
541,839,48,0.0692311523603166,1
541,840,48,0.0479929789439254,1
542,835,48,0.0415649686880848,1
542,836,48,0.0479052654849534,1
542,837,48,0.0540300092814173,1
542,838,48,0.0629625353503136,1
542,839,48,0.0594682058905381,1
542,840,48,0.0501279146950467,1
542,841,48,0.0461952774636825,1
543,836,48,0.0452353495436759,1
543,837,48,0.0483870974718368,1
543,838,48,0.0484981626184929,1
543,839,48,0.0507148752337548,1
543,840,48,0.0566562225851511,1
543,841,48,0.0579326012873911,1
543,842,48,0.0499084715489396,1
544,839,48,0.049215420059609,1
544,840,48,0.0575516427520298,1
544,841,48,0.0589663149174755,1
545,840,48,0.0511335133040712,1
532,830,49,0.0433643813998979,1
540,835,49,0.0423034502667337,1
541,835,49,0.041798885663303,1
541,836,49,0.0431282963240172,1
541,837,49,0.0472597067542748,1
541,838,49,0.0568789962799069,1
541,839,49,0.0566769682266524,1
542,836,49,0.0442636025013545,1
542,837,49,0.0491209103349693,1
542,838,49,0.0530750717776488,1
542,839,49,0.0524559952341146,1
543,840,49,0.0549894343750857,1
543,841,49,0.0550542989727117,1
544,840,49,0.0550317150413719,1
