x,y,z,signal,cytoplasm.p
551,925,33,0.0610803968923991,1
552,925,33,0.0551376762303587,1
552,926,33,0.0516153723246287,1
552,927,33,0.0487022560444484,1
552,928,33,0.0473038689642781,1
552,929,33,0.0467843087818263,1
552,930,33,0.0472126465344084,1
553,924,33,0.0510337320129827,1
553,925,33,0.0482612935660634,1
553,926,33,0.0461058608832425,1
553,927,33,0.044960930717927,1
553,928,33,0.0443083324185138,1
553,929,33,0.0440236948639566,1
553,930,33,0.0452511696497569,1
553,931,33,0.0471753400641559,1
553,932,33,0.0512457030515698,1
554,923,33,0.0506962165918937,1
554,924,33,0.0472975538980093,1
554,925,33,0.0439995727165607,1
554,926,33,0.042181979858918,1
554,927,33,0.0415446609921038,1
554,928,33,0.0411064829821508,1
554,929,33,0.0413282861680065,1
554,930,33,0.0431006733158259,1
554,931,33,0.0453271369773342,1
554,932,33,0.0497200955011035,1
554,933,33,0.0581771965638773,1
555,922,33,0.0536424274959023,1
555,923,33,0.0507084033721762,1
555,924,33,0.0469510795173248,1
555,925,33,0.0440070096803045,1
555,926,33,0.0415838408959712,1
555,930,33,0.0430006676452424,1
555,931,33,0.0477285896112662,1
555,932,33,0.0579453719950341,1
555,933,33,0.0701491618652699,1
555,934,33,0.0727821119605885,1
556,921,33,0.0568307898322589,1
556,922,33,0.0579175651578589,1
556,923,33,0.0518060354212932,1
556,924,33,0.0473940857414714,1
556,925,33,0.0464147530501986,1
556,926,33,0.0456345990629307,1
556,927,33,0.043870743742656,1
556,928,33,0.041510098439772,1
556,929,33,0.0416024346570145,1
556,930,33,0.0436369808593802,1
556,931,33,0.052515377402634,1
556,932,33,0.0718480985205703,1
556,933,33,0.0906397352447395,1
556,934,33,0.0883291833399555,1
556,935,33,0.0670050536534086,1
557,920,33,0.0525974191967807,1
557,921,33,0.0615285232944195,1
557,922,33,0.0619054916594844,1
557,923,33,0.0531445429133408,1
557,924,33,0.0479179550915741,1
557,925,33,0.0511035762133773,1
557,926,33,0.0580842493856003,1
557,927,33,0.0573174824737447,1
557,928,33,0.0466727732492409,1
557,930,33,0.0420099429637056,1
557,931,33,0.0519158624256758,1
557,932,33,0.0713042350651062,1
557,933,33,0.0884100572793812,1
557,934,33,0.0852672358704069,1
557,935,33,0.0646087941882705,1
557,936,33,0.0451839044618711,1
558,920,33,0.0558608648595715,1
558,921,33,0.0644385090751395,1
558,922,33,0.0631103662937404,1
558,923,33,0.0553236895350788,1
558,924,33,0.0507998474781734,1
558,925,33,0.0569197252133,1
558,926,33,0.0717357249440879,1
558,927,33,0.0716580896388189,1
558,928,33,0.0517400570362944,1
558,931,33,0.0449949877405532,1
558,932,33,0.0556189945774343,1
558,933,33,0.0635127463124555,1
558,934,33,0.062136494404635,1
558,935,33,0.051443643613301,1
559,920,33,0.0573839366514076,1
559,921,33,0.0651240343896017,1
559,922,33,0.0739825692924972,1
559,923,33,0.0857724844257922,1
559,924,33,0.0789261794272962,1
559,925,33,0.0620710242527092,1
559,926,33,0.0648010847121156,1
559,927,33,0.0632637823942354,1
559,928,33,0.0454223630943375,1
559,933,33,0.0414341121886229,1
559,934,33,0.0415743574830983,1
560,919,33,0.0451209241113296,1
560,920,33,0.0553899166298792,1
560,921,33,0.0624901164887505,1
560,922,33,0.0906356153128073,1
560,923,33,0.132374137485221,1
560,924,33,0.126193277188069,1
560,925,33,0.0722772418766405,1
560,926,33,0.0470074285076106,1
560,927,33,0.0415405329500694,1
561,919,33,0.0471772053876685,1
561,920,33,0.0560923379906515,1
561,921,33,0.0611040243235591,1
561,922,33,0.0850724744687494,1
561,923,33,0.127770702885042,1
561,924,33,0.126988986351412,1
561,925,33,0.070891149711449,1
562,919,33,0.0599044807298348,1
562,920,33,0.0616354306619997,1
562,921,33,0.0621982987903534,1
562,922,33,0.0636877515050836,1
562,923,33,0.0768930038322071,1
562,924,33,0.0799207807376984,1
562,925,33,0.0539615221714624,1
563,919,33,0.0843212735464383,1
563,920,33,0.0651902993315459,1
563,921,33,0.0575015493539298,1
563,922,33,0.0485043479231261,1
563,923,33,0.0423077134771386,1
563,924,33,0.0434138962773722,1
564,919,33,0.0974544595051566,1
564,920,33,0.0627885574373011,1
564,921,33,0.046850260133151,1
565,919,33,0.0706644128800707,1
565,920,33,0.0503914443568698,1
565,932,33,0.0443295295223725,1
565,933,33,0.0532491686388273,1
565,934,33,0.0550623441941227,1
565,935,33,0.0451469683529537,1
566,919,33,0.04562833806401,1
566,932,33,0.0571575512577925,1
566,933,33,0.0764219096206747,1
566,934,33,0.0804891150749542,1
566,935,33,0.058416541900854,1
566,936,33,0.0418548156316403,1
567,932,33,0.050800609827783,1
567,933,33,0.0695395957682827,1
567,934,33,0.0750871868430006,1
567,935,33,0.0545339980675897,1
568,933,33,0.0453803635782619,1
568,934,33,0.0495632190903242,1
545,921,34,0.0610758498284162,1
546,921,34,0.059103894691685,1
550,924,34,0.108200355771802,1
550,925,34,0.104536784698716,1
550,926,34,0.0755910026136589,1
550,927,34,0.0532398690549382,1
550,928,34,0.0475613538965732,1
550,929,34,0.0451892490192399,1
551,924,34,0.0888287061631673,1
551,925,34,0.0836544285007765,1
551,926,34,0.0633178443356927,1
551,927,34,0.0501515799733504,1
551,928,34,0.0474636704185946,1
551,929,34,0.045740544031713,1
551,930,34,0.0444250611198931,1
552,923,34,0.0602745663214748,1
552,924,34,0.0628925505748138,1
552,925,34,0.0590646363901628,1
552,926,34,0.0514294887815443,1
552,927,34,0.0476715809993324,1
552,928,34,0.0466693507861003,1
552,929,34,0.0451460167676255,1
552,930,34,0.0444179999242192,1
552,931,34,0.0456685749845346,1
552,932,34,0.0474246067595258,1
552,933,34,0.0518682723457971,1
553,922,34,0.0517201926925686,1
553,923,34,0.052551862049194,1
553,924,34,0.0505526299353,1
553,925,34,0.0474396158553839,1
553,926,34,0.0449604900690392,1
553,927,34,0.0439609821467886,1
553,928,34,0.0430741073242917,1
553,929,34,0.0422282371786637,1
553,930,34,0.0428798487489724,1
553,931,34,0.0446658824954754,1
553,932,34,0.0472862538222371,1
553,933,34,0.0526511567341488,1
553,934,34,0.0577271129238523,1
554,921,34,0.0471396502076143,1
554,922,34,0.051136660023736,1
554,923,34,0.0510222589216964,1
554,924,34,0.0470600955114845,1
554,925,34,0.0430499094826084,1
554,931,34,0.0424696992523221,1
554,932,34,0.0477246589150526,1
554,933,34,0.0562932738834725,1
554,934,34,0.0602085933432108,1
554,935,34,0.0571963608003248,1
555,920,34,0.0438523743611078,1
555,921,34,0.0497249940028497,1
555,922,34,0.0530943630074837,1
555,923,34,0.0509825086073056,1
555,924,34,0.0464776225626764,1
555,925,34,0.042638716486138,1
555,931,34,0.0476785124333706,1
555,932,34,0.0701368345098821,1
555,933,34,0.0937666987004891,1
555,934,34,0.0910724037919118,1
555,935,34,0.0669191838910099,1
555,936,34,0.050697103296404,1
556,920,34,0.0476779176925405,1
556,921,34,0.0553838286464728,1
556,922,34,0.0552076069385104,1
556,923,34,0.0500464676417302,1
556,924,34,0.0459831009691724,1
556,925,34,0.0444048939990174,1
556,926,34,0.0421349196390516,1
556,931,34,0.0607071970215033,1
556,932,34,0.110797902567524,1
556,933,34,0.153797167165081,1
556,934,34,0.139473893991837,1
556,935,34,0.085738519317658,1
556,936,34,0.0479004859313732,1
557,919,34,0.0436973416469018,1
557,920,34,0.0567987765553943,1
557,921,34,0.0672663557404861,1
557,922,34,0.0604370224825875,1
557,923,34,0.0500830279825777,1
557,924,34,0.045706514042761,1
557,925,34,0.0482053717078284,1
557,926,34,0.0518788857662472,1
557,927,34,0.0487052784092123,1
557,931,34,0.0650619812940817,1
557,932,34,0.121583484267743,1
557,933,34,0.163742185429896,1
557,934,34,0.143428585294529,1
557,935,34,0.0851592255289236,1
557,936,34,0.0446941191680687,1
558,919,34,0.0477762283517582,1
558,920,34,0.0677424457749914,1
558,921,34,0.0797149895970097,1
558,922,34,0.0658554250355352,1
558,923,34,0.0537333255216829,1
558,924,34,0.048126071128235,1
558,925,34,0.0526383265524228,1
558,926,34,0.0624931929208626,1
558,927,34,0.0590016695564583,1
558,928,34,0.0423012497256623,1
558,931,34,0.052621992806534,1
558,932,34,0.0886848275428934,1
558,933,34,0.111637719873522,1
558,934,34,0.0979087549916057,1
558,935,34,0.062924634139231,1
559,919,34,0.049302149492844,1
559,920,34,0.0699953186327241,1
559,921,34,0.0817040354225043,1
559,922,34,0.0804629897323078,1
559,923,34,0.0933641132258509,1
559,924,34,0.0797756531616812,1
559,925,34,0.0581587109375304,1
559,926,34,0.05702813565316,1
559,927,34,0.0534825287203591,1
559,932,34,0.049444141162666,1
559,933,34,0.0561783537348902,1
559,934,34,0.0518396923455428,1
560,919,34,0.0480617417973561,1
560,920,34,0.0651201847944104,1
560,921,34,0.0764692996513651,1
560,922,34,0.104525495436413,1
560,923,34,0.156527135709996,1
560,924,34,0.13609773412827,1
560,925,34,0.0698028334664255,1
561,919,34,0.0492823878770797,1
561,920,34,0.0629513704429119,1
561,921,34,0.0706186773102351,1
561,922,34,0.0955069968771565,1
561,923,34,0.147188428687806,1
561,924,34,0.130904673469118,1
561,925,34,0.0655504635647926,1
562,918,34,0.0523151119449305,1
562,919,34,0.056892869961453,1
562,920,34,0.0630169649497386,1
562,921,34,0.0637856674726594,1
562,922,34,0.0617840401752405,1
562,923,34,0.0762612376820523,1
562,924,34,0.0696349165031454,1
562,925,34,0.0434236013663727,1
563,918,34,0.0762274509961671,1
563,919,34,0.0692540120351322,1
563,920,34,0.0589729868282424,1
563,921,34,0.0514170154443164,1
564,918,34,0.0920931520718997,1
564,919,34,0.0758657945041103,1
564,920,34,0.0542158009100097,1
565,918,34,0.0736082340072893,1
565,919,34,0.0595575792170996,1
565,920,34,0.0454791554368785,1
565,933,34,0.0418891673213141,1
565,934,34,0.0418228077615106,1
566,918,34,0.051096736693831,1
566,919,34,0.0437679130531295,1
566,932,34,0.0449141300213319,1
566,933,34,0.0600090577947079,1
566,934,34,0.0565032065830327,1
566,935,34,0.041689326292294,1
567,932,34,0.0413465068643473,1
567,933,34,0.0556324789740734,1
567,934,34,0.0525919421744088,1
572,939,34,0.0431291019275053,1
573,938,34,0.0437842062485072,1
573,939,34,0.0504864731280522,1
574,938,34,0.0435663770127435,1
574,939,34,0.0503114246815455,1
575,938,34,0.0443421245111339,1
576,939,34,0.0579177003262294,1
577,939,34,0.0522508637150739,1
544,921,35,0.0616004815281284,1
545,920,35,0.0594653511345536,1
545,921,35,0.0631073817761202,1
545,922,35,0.0633785403407731,1
546,920,35,0.0562753829979557,1
546,921,35,0.062073365368886,1
546,922,35,0.0613177201105535,1
547,921,35,0.0577578826517084,1
549,924,35,0.146617347729262,1
549,925,35,0.1390913242495,1
549,926,35,0.089211151550604,1
549,927,35,0.0554669139404396,1
549,928,35,0.047606100033937,1
549,929,35,0.0431253226198667,1
550,923,35,0.118906166506498,1
550,924,35,0.175689577121536,1
550,925,35,0.161693941264866,1
550,926,35,0.0952648616650131,1
550,927,35,0.0534177181900812,1
550,928,35,0.0464859110871542,1
550,929,35,0.0436014423914135,1
551,923,35,0.0978415384643333,1
551,924,35,0.133897420139715,1
551,925,35,0.120384994987308,1
551,926,35,0.0753820971937143,1
551,927,35,0.049990729612479,1
551,928,35,0.0466049349474643,1
551,929,35,0.0435931511635683,1
551,930,35,0.0411138388448723,1
551,933,35,0.0430391311567463,1
552,922,35,0.0573279282854154,1
552,923,35,0.0664756207731769,1
552,924,35,0.0752004254970541,1
552,925,35,0.0682898993023755,1
552,926,35,0.0549334800764417,1
552,927,35,0.0481178907384536,1
552,928,35,0.0463848267729743,1
552,929,35,0.0429191665245777,1
552,932,35,0.0414030748273932,1
552,933,35,0.043816360100477,1
552,934,35,0.0466176732146983,1
553,921,35,0.0469763614093394,1
553,922,35,0.051102927405199,1
553,923,35,0.0521183446446551,1
553,924,35,0.0505635190992259,1
553,925,35,0.0471170338358655,1
553,926,35,0.0448457915965846,1
553,927,35,0.0434716618321807,1
553,928,35,0.04205818455513,1
553,932,35,0.0415134560220948,1
553,933,35,0.0443289510017469,1
553,934,35,0.0471795302836408,1
553,935,35,0.0512590468731036,1
553,936,35,0.0563730935096085,1
554,920,35,0.0422200703057193,1
554,921,35,0.0457974445089504,1
554,922,35,0.0495544980270608,1
554,923,35,0.0498425688582282,1
554,924,35,0.0462746699577678,1
554,925,35,0.0424395512989702,1
554,932,35,0.0447816271711176,1
554,933,35,0.0523258875674252,1
554,934,35,0.0548566990352741,1
554,935,35,0.0534116464268793,1
554,936,35,0.0543189992575039,1
554,937,35,0.0540991776399594,1
555,920,35,0.043326623467288,1
555,921,35,0.0484715722966521,1
555,922,35,0.0507600701301085,1
555,923,35,0.0494308946623589,1
555,924,35,0.0452137280111339,1
555,925,35,0.0411209324809551,1
555,931,35,0.0463360634316399,1
555,932,35,0.0755420770702799,1
555,933,35,0.103301778331312,1
555,934,35,0.0983466248176741,1
555,935,35,0.0686345678336304,1
555,936,35,0.0501888810368681,1
555,937,35,0.0448083878051053,1
556,919,35,0.0422542138361026,1
556,920,35,0.0516733703690343,1
556,921,35,0.0575593365356775,1
556,922,35,0.0523884975566317,1
556,923,35,0.0479972124172889,1
556,924,35,0.0442662950552945,1
556,925,35,0.0417033729893543,1
556,931,35,0.0656101917643404,1
556,932,35,0.136835180317201,1
556,933,35,0.193894766946805,1
556,934,35,0.172382828919578,1
556,935,35,0.0978753521838926,1
556,936,35,0.0494758624758503,1
557,919,35,0.0516562904937404,1
557,920,35,0.0720290294945603,1
557,921,35,0.0782619674614913,1
557,922,35,0.0595847913134447,1
557,923,35,0.0480602603520156,1
557,924,35,0.0440024382860149,1
557,925,35,0.0438038408060032,1
557,926,35,0.0434595291192464,1
557,931,35,0.0745425556311922,1
557,932,35,0.15903222734031,1
557,933,35,0.218642149157194,1
557,934,35,0.185678541326962,1
557,935,35,0.0999489431217553,1
557,936,35,0.0460759508262226,1
558,919,35,0.0593020947766876,1
558,920,35,0.0886739545991719,1
558,921,35,0.0954959238842467,1
558,922,35,0.0678374042586212,1
558,923,35,0.0530854256748275,1
558,924,35,0.046728484244818,1
558,925,35,0.0464786282153528,1
558,926,35,0.0490034868681657,1
558,927,35,0.0442391451363998,1
558,931,35,0.0596585175494394,1
558,932,35,0.116531496133493,1
558,933,35,0.152123707044249,1
558,934,35,0.127534385319564,1
558,935,35,0.073295757175148,1
559,919,35,0.0575134009166535,1
559,920,35,0.0844990686142331,1
559,921,35,0.0923180506134395,1
559,922,35,0.0807070605555165,1
559,923,35,0.0890311072811243,1
559,924,35,0.0725750340170128,1
559,925,35,0.0511160711775445,1
559,926,35,0.0457277192567219,1
559,927,35,0.0410391231764057,1
559,932,35,0.0577228686370192,1
559,933,35,0.0689746298268193,1
559,934,35,0.0596059316465878,1
559,935,35,0.0427867420720182,1
560,919,35,0.0509406658865397,1
560,920,35,0.0705413339686463,1
560,921,35,0.0813551496380905,1
560,922,35,0.103885283966471,1
560,923,35,0.147539736689419,1
560,924,35,0.119658470402712,1
560,925,35,0.0607786416154043,1
561,919,35,0.049574232609151,1
561,920,35,0.0640767714820604,1
561,921,35,0.0720097112310512,1
561,922,35,0.0941665591807785,1
561,923,35,0.137028481900458,1
561,924,35,0.112582125057863,1
561,925,35,0.0564221974752365,1
562,917,35,0.041346947513235,1
562,918,35,0.0461847018903762,1
562,919,35,0.0516437090218161,1
562,920,35,0.0585748348761559,1
562,921,35,0.058736382705819,1
562,922,35,0.0569750252970309,1
562,923,35,0.0691752250953467,1
562,924,35,0.0585893843995544,1
563,917,35,0.0508916322084643,1
563,918,35,0.0565766516688168,1
563,919,35,0.0552290987094167,1
563,920,35,0.0509278248913441,1
563,921,35,0.0442627536439879,1
564,917,35,0.0633507497238024,1
564,918,35,0.0630848194717196,1
564,919,35,0.0551290903354658,1
564,920,35,0.0446230530456051,1
565,918,35,0.058514782272519,1
565,919,35,0.046670318591633,1
566,918,35,0.047517489056985,1
566,933,35,0.0440277634319081,1
567,933,35,0.0425551310692004,1
572,939,35,0.0506730811736023,1
572,940,35,0.0445609350692672,1
573,935,35,0.0412322166003714,1
573,938,35,0.0467109826442082,1
573,939,35,0.0581556290986835,1
573,940,35,0.0506550172725713,1
574,938,35,0.0461797276943425,1
574,939,35,0.054784719174626,1
574,940,35,0.0499024268194117,1
575,938,35,0.0472841289754532,1
575,939,35,0.0557927994749325,1
575,940,35,0.0501618689897114,1
576,938,35,0.0525472663245977,1
576,939,35,0.0646220460953123,1
576,940,35,0.0543043361926742,1
577,938,35,0.0473478581587672,1
577,939,35,0.0587186972762254,1
577,940,35,0.0493546759216126,1
544,920,36,0.059182519429426,1
544,921,36,0.0619557202259548,1
545,919,36,0.0549355832962864,1
545,920,36,0.0596556411665156,1
545,921,36,0.0646904466975101,1
545,922,36,0.0650039399957975,1
546,920,36,0.0571114101828454,1
546,921,36,0.0633003319216132,1
546,922,36,0.0625678004546329,1
547,921,36,0.057213997569305,1
547,926,36,0.0593800652995154,1
547,927,36,0.0543060825680208,1
547,928,36,0.0485133339163956,1
548,924,36,0.0944429514647364,1
548,925,36,0.0897919916654966,1
548,926,36,0.0679743352246524,1
548,927,36,0.0547189516522852,1
548,928,36,0.0475959461859465,1
548,933,36,0.0422938857528385,1
549,923,36,0.11947371146047,1
549,924,36,0.177368606179232,1
549,925,36,0.158951515602928,1
549,926,36,0.0901014028789955,1
549,927,36,0.0533936852538099,1
549,928,36,0.0454103709565085,1
549,933,36,0.0432116735816642,1
549,934,36,0.060543859562615,1
550,922,36,0.0736447024336449,1
550,923,36,0.149148067282619,1
550,924,36,0.230342777471684,1
550,925,36,0.200077584481962,1
550,926,36,0.102229795832177,1
550,927,36,0.0516539061236852,1
550,928,36,0.044408362419404,1
550,929,36,0.0410318240843997,1
550,934,36,0.0503773381857264,1
550,935,36,0.0603076555385683,1
551,921,36,0.0513441110320142,1
551,922,36,0.0686393744208846,1
551,923,36,0.11866085213428,1
551,924,36,0.171814905494168,1
551,925,36,0.146426360228509,1
551,926,36,0.0795650121798597,1
551,927,36,0.0485230660390702,1
551,928,36,0.0443481476137224,1
551,935,36,0.0451201752785571,1
551,936,36,0.0469359731002399,1
552,920,36,0.0462224408994142,1
552,921,36,0.0510010158605917,1
552,922,36,0.058553899998936,1
552,923,36,0.0709372259055783,1
552,924,36,0.0838463243329798,1
552,925,36,0.0728889544473508,1
552,926,36,0.0545613128918964,1
552,927,36,0.0466537145090032,1
552,928,36,0.0439019757463392,1
552,936,36,0.0444215170052191,1
552,937,36,0.0488170302111905,1
553,920,36,0.0437928191770742,1
553,921,36,0.0472640051084561,1
553,922,36,0.0513276313042852,1
553,923,36,0.0516938564872643,1
553,924,36,0.0496455041875377,1
553,925,36,0.0454204599236811,1
553,926,36,0.0427999047679356,1
553,927,36,0.0412419270961067,1
553,935,36,0.0436190656435567,1
553,936,36,0.0477081954075281,1
553,937,36,0.0494523323659171,1
554,920,36,0.0419364546240429,1
554,921,36,0.045039358109847,1
554,922,36,0.0478670614967209,1
554,923,36,0.0476906289261005,1
554,924,36,0.0445461152091277,1
554,933,36,0.0461623774823076,1
554,934,36,0.0491779946411905,1
554,935,36,0.051091443500443,1
554,936,36,0.0517815591327667,1
554,937,36,0.0483657787164446,1
555,920,36,0.0427331667366947,1
555,921,36,0.0465630597862895,1
555,922,36,0.0474149503311387,1
555,923,36,0.0465051158092321,1
555,924,36,0.0434742732850983,1
555,931,36,0.0427840792551198,1
555,932,36,0.0718790574841451,1
555,933,36,0.0980020427941763,1
555,934,36,0.0932141952827839,1
555,935,36,0.0677693713143911,1
555,936,36,0.050722104038208,1
555,937,36,0.042436553264513,1
556,919,36,0.0422596449012285,1
556,920,36,0.0540096096709444,1
556,921,36,0.0563447730326255,1
556,922,36,0.0486811319315097,1
556,923,36,0.0447823327500115,1
556,924,36,0.0420301317115205,1
556,931,36,0.0644367140391795,1
556,932,36,0.138946726533495,1
556,933,36,0.197047044734978,1
556,934,36,0.173149449849593,1
556,935,36,0.0979034780184222,1
556,936,36,0.0487143617237086,1
557,919,36,0.0556241742293911,1
557,920,36,0.0792863058133991,1
557,921,36,0.0776496331162767,1
557,922,36,0.0555484042476347,1
557,923,36,0.0447701567831987,1
557,924,36,0.0417876477649813,1
557,931,36,0.0767005727332567,1
557,932,36,0.170482231868991,1
557,933,36,0.236141803342435,1
557,934,36,0.197226764600368,1
557,935,36,0.102818405425005,1
557,936,36,0.0442057990994023,1
558,919,36,0.064353742286644,1
558,920,36,0.0943465926367884,1
558,921,36,0.0906038399322748,1
558,922,36,0.0618155073718883,1
558,923,36,0.0489204502348123,1
558,924,36,0.0441091158673653,1
558,931,36,0.0610869336347956,1
558,932,36,0.127577714892406,1
558,933,36,0.170079884290684,1
558,934,36,0.139315076563258,1
558,935,36,0.0757946635008288,1
559,919,36,0.058477578530228,1
559,920,36,0.0830220405761174,1
559,921,36,0.0827592300100254,1
559,922,36,0.0700995226328947,1
559,923,36,0.0721508756704459,1
559,924,36,0.059324451625165,1
559,925,36,0.0419704927230972,1
559,932,36,0.0599881769848361,1
559,933,36,0.074501707749633,1
559,934,36,0.0620847357322107,1
559,935,36,0.0413009821571695,1
560,919,36,0.0482618612732194,1
560,920,36,0.0634518881053305,1
560,921,36,0.0702390163912303,1
560,922,36,0.0847632362707648,1
560,923,36,0.108343266586543,1
560,924,36,0.0851045688466362,1
560,925,36,0.0463688390581139,1
561,919,36,0.0453806717621466,1
561,920,36,0.0545186159070291,1
561,921,36,0.0596820476593726,1
561,922,36,0.0747619284897467,1
561,923,36,0.0974965779693982,1
561,924,36,0.0768854830640736,1
561,925,36,0.0414986631956294,1
562,918,36,0.0417384870286376,1
562,919,36,0.0455246477036473,1
562,920,36,0.0482253549997201,1
562,921,36,0.0459160898978231,1
562,922,36,0.0449073364590316,1
562,923,36,0.0513040579404735,1
562,924,36,0.0428557509318832,1
563,917,36,0.0432314865614092,1
563,918,36,0.0457558504979862,1
563,919,36,0.0459267627923562,1
563,920,36,0.0423366908724022,1
564,917,36,0.0532528398117695,1
564,918,36,0.0482963238009571,1
564,919,36,0.0434077515232502,1
565,917,36,0.0655745019077988,1
565,918,36,0.0501084720766369,1
566,917,36,0.0574520398831903,1
566,918,36,0.0443885575497612,1
572,939,36,0.0491610499342671,1
572,940,36,0.0425745196202621,1
573,938,36,0.0432582498987643,1
573,939,36,0.0568896151070918,1
573,940,36,0.0480913923311046,1
574,938,36,0.0435272511762243,1
574,939,36,0.053157064911182,1
574,940,36,0.0470326401120725,1
575,938,36,0.0458063277742584,1
575,939,36,0.054904164760252,1
575,940,36,0.0489383303068594,1
576,938,36,0.0506299083960709,1
576,939,36,0.0627083809666671,1
576,940,36,0.0524941830021427,1
577,938,36,0.0457165543493202,1
577,939,36,0.0574754402314878,1
577,940,36,0.0481409991230709,1
543,921,37,0.0584670462108002,1
544,918,37,0.0555742376266009,1
544,919,37,0.0575525456767446,1
544,920,37,0.060476513273707,1
544,921,37,0.0636886273961243,1
544,922,37,0.0643241998875918,1
545,919,37,0.0576247688404595,1
545,920,37,0.0619914425229053,1
545,921,37,0.066323934827824,1
545,922,37,0.065909140945964,1
546,920,37,0.0586873652479481,1
546,921,37,0.0638411946392527,1
546,925,37,0.0707701848333389,1
546,926,37,0.0650831648811033,1
546,927,37,0.0548373915852347,1
546,928,37,0.0467615518349723,1
547,924,37,0.0670451824392367,1
547,925,37,0.0662330368020435,1
547,926,37,0.0604062581614662,1
547,927,37,0.0530657235331464,1
547,928,37,0.0456886177505094,1
547,934,37,0.044888423700634,1
548,923,37,0.0756649451190464,1
548,924,37,0.0921302314592898,1
548,925,37,0.0855596969702475,1
548,926,37,0.0658102031055074,1
548,927,37,0.0528507085028561,1
548,928,37,0.0447459805684546,1
548,933,37,0.0411614748819969,1
548,934,37,0.0576290726013756,1
548,935,37,0.0707030818474977,1
549,922,37,0.0680520245972696,1
549,923,37,0.122790948727977,1
549,924,37,0.17908885618319,1
549,925,37,0.152709948487226,1
549,926,37,0.0838812626533815,1
549,927,37,0.0515338171366157,1
549,928,37,0.0434842541175746,1
549,933,37,0.041865201969228,1
549,934,37,0.0619029559008542,1
549,935,37,0.0787307529972559,1
549,936,37,0.0718866917937098,1
550,921,37,0.0487052459688034,1
550,922,37,0.0765209772227671,1
550,923,37,0.161873736824544,1
550,924,37,0.246192771982767,1
550,925,37,0.203179882413466,1
550,926,37,0.0978113040032243,1
550,927,37,0.0499137323019186,1
550,928,37,0.0422531324891387,1
550,934,37,0.0485745814084276,1
550,935,37,0.0597037665131413,1
550,936,37,0.0578447526600486,1
550,937,37,0.0486637276521267,1
551,920,37,0.0454111765599965,1
551,921,37,0.0503150526006092,1
551,922,37,0.0698212325850153,1
551,923,37,0.128234935950089,1
551,924,37,0.185478384003954,1
551,925,37,0.151672850241145,1
551,926,37,0.0776622308084055,1
551,927,37,0.0472763108369046,1
551,928,37,0.0413854056180041,1
551,936,37,0.0436610678629997,1
551,937,37,0.0456369563993118,1
551,938,37,0.0444328116742564,1
552,919,37,0.0422380774360347,1
552,920,37,0.045063718153575,1
552,921,37,0.0499741525635233,1
552,922,37,0.0581271410129211,1
552,923,37,0.0734586188413722,1
552,924,37,0.0881340434668607,1
552,925,37,0.0749141821422556,1
552,926,37,0.0534390261320037,1
552,927,37,0.0441016356497429,1
552,937,37,0.0447040729668709,1
552,938,37,0.0449518636236352,1
553,920,37,0.0434603969001848,1
553,921,37,0.0477288491345375,1
553,922,37,0.0509649529393476,1
553,923,37,0.0515480314424554,1
553,924,37,0.0492494500485611,1
553,925,37,0.0447038972479893,1
553,936,37,0.0429205911992025,1
553,937,37,0.0437906889235554,1
554,920,37,0.0418393794037314,1
554,921,37,0.045101951878849,1
554,922,37,0.0459472813509951,1
554,923,37,0.0450422723399146,1
554,924,37,0.041649132625648,1
554,934,37,0.0441300642614223,1
554,935,37,0.0482528482462758,1
554,936,37,0.0495643761315755,1
554,937,37,0.0443148205002969,1
555,920,37,0.0430264469568604,1
555,921,37,0.045057303062712,1
555,922,37,0.0439937875103042,1
555,923,37,0.0431467170695463,1
555,932,37,0.0615466412627987,1
555,933,37,0.0802253204831251,1
555,934,37,0.0773665851417564,1
555,935,37,0.0625926281809227,1
555,936,37,0.050864695855595,1
555,937,37,0.0410476577073178,1
556,919,37,0.0423125416913322,1
556,920,37,0.0518485161367677,1
556,921,37,0.0507343448858387,1
556,922,37,0.0438992480486229,1
556,923,37,0.0411387206385103,1
556,931,37,0.0578240394589563,1
556,932,37,0.114696634164837,1
556,933,37,0.156453885266665,1
556,934,37,0.136901975119158,1
556,935,37,0.0827522661355782,1
556,936,37,0.046377479020355,1
557,919,37,0.0526521407598859,1
557,920,37,0.0692933568444116,1
557,921,37,0.0633300743698537,1
557,922,37,0.0475444578502632,1
557,931,37,0.0702024614571176,1
557,932,37,0.146870253157165,1
557,933,37,0.198106526863211,1
557,934,37,0.164937463109848,1
557,935,37,0.0891470168621785,1
557,936,37,0.0418257138814759,1
558,919,37,0.0578479696672661,1
558,920,37,0.0761187215589528,1
558,921,37,0.0685329158122944,1
558,922,37,0.0502331513815678,1
558,923,37,0.0427915865064162,1
558,931,37,0.0564206835894871,1
558,932,37,0.113649684847915,1
558,933,37,0.148826777472723,1
558,934,37,0.121486011652422,1
558,935,37,0.0669980573385525,1
559,919,37,0.0516259533046699,1
559,920,37,0.0652543366987446,1
559,921,37,0.0619997797079965,1
559,922,37,0.0539334936581596,1
559,923,37,0.0524106922030645,1
559,924,37,0.0454350094470796,1
559,932,37,0.0563168526540191,1
559,933,37,0.069408720345249,1
559,934,37,0.0580706784812041,1
560,919,37,0.0433743487155372,1
560,920,37,0.0514672710444609,1
560,921,37,0.0550424528167228,1
560,922,37,0.0595166610479878,1
560,923,37,0.0650567043208981,1
560,924,37,0.0525597504752952,1
561,920,37,0.0445863223926108,1
561,921,37,0.0470770564386123,1
561,922,37,0.051184001393813,1
561,923,37,0.0553475710827752,1
561,924,37,0.0443313786256807,1
564,916,37,0.0469177415904295,1
564,917,37,0.0478277869749942,1
564,918,37,0.041682865244185,1
565,917,37,0.0591116263224765,1
565,918,37,0.0447903103872373,1
566,917,37,0.0521789757689177,1
566,918,37,0.0412268828564723,1
573,939,37,0.0479531529352471,1
573,940,37,0.0444372533069104,1
574,939,37,0.0468874152148286,1
574,940,37,0.0443271532624195,1
575,939,37,0.0485946025474631,1
575,940,37,0.045260720646815,1
576,938,37,0.0424072730920995,1
576,939,37,0.0513097079783596,1
576,940,37,0.0449692814198553,1
577,939,37,0.0465082138682835,1
543,918,38,0.05563422534942,1
543,919,38,0.0550774452044728,1
543,920,38,0.0577638246532747,1
543,921,38,0.060704753177365,1
544,917,38,0.0540886182868575,1
544,918,38,0.0587385237728074,1
544,919,38,0.0615812497723765,1
544,920,38,0.0650547470828935,1
544,921,38,0.0672410792552063,1
544,922,38,0.0689002601893811,1
545,918,38,0.0583736989341466,1
545,919,38,0.0660416167625043,1
545,920,38,0.0699829642436623,1
545,921,38,0.0718399830116067,1
545,922,38,0.0775705920599547,1
545,925,38,0.090209256425169,1
545,926,38,0.0766869423547775,1
545,927,38,0.0588353313597454,1
545,928,38,0.0486479183595153,1
545,929,38,0.0451469845731582,1
545,930,38,0.0414407651758179,1
546,919,38,0.0618401026085809,1
546,920,38,0.0649777011117198,1
546,921,38,0.0690325792106115,1
546,923,38,0.0954332814546314,1
546,924,38,0.0943826447445629,1
546,925,38,0.0845442148499735,1
546,926,38,0.0695543777812785,1
546,927,38,0.0537763144702304,1
546,928,38,0.043945151227238,1
547,920,38,0.0540443479421578,1
547,923,38,0.0868141243291215,1
547,924,38,0.0852668033316213,1
547,925,38,0.0747863344907206,1
547,926,38,0.0635383255748851,1
547,927,38,0.0513535457842737,1
547,928,38,0.0417871368285408,1
547,934,38,0.0440243436721349,1
547,935,38,0.0477494271672594,1
548,922,38,0.0614130624723554,1
548,923,38,0.0786432936548204,1
548,924,38,0.0893670601558506,1
548,925,38,0.0788249004706627,1
548,926,38,0.0627267584583176,1
548,927,38,0.0494407511399343,1
548,934,38,0.0569603351985271,1
548,935,38,0.0679545357617445,1
548,936,38,0.0586779737495671,1
549,921,38,0.0444851840110827,1
549,922,38,0.062498534774864,1
549,923,38,0.107485715190338,1
549,924,38,0.150935144528942,1
549,925,38,0.121637108263679,1
549,926,38,0.0706451270569706,1
549,927,38,0.0470897514519678,1
549,934,38,0.0601214529981296,1
549,935,38,0.0756046221786685,1
549,936,38,0.0670987307408862,1
549,937,38,0.0492697415243376,1
550,920,38,0.0429444348997552,1
550,921,38,0.0447543799309962,1
550,922,38,0.072290174786328,1
550,923,38,0.147791387754844,1
550,924,38,0.216194412169842,1
550,925,38,0.167655699040205,1
550,926,38,0.0818523313451256,1
550,927,38,0.045669191352304,1
550,934,38,0.0467775503633023,1
550,935,38,0.0579180679841971,1
550,936,38,0.0551669428859351,1
550,937,38,0.0466032480462007,1
550,938,38,0.041736575747879,1
551,919,38,0.0428576297722329,1
551,920,38,0.0443012658161051,1
551,921,38,0.0469049060019687,1
551,922,38,0.065818140192222,1
551,923,38,0.117494305843158,1
551,924,38,0.165506132664663,1
551,925,38,0.127983674169571,1
551,926,38,0.0669300406145269,1
551,927,38,0.0432165234227971,1
551,937,38,0.0423097869599418,1
551,938,38,0.0425553365251235,1
552,919,38,0.0415555582661319,1
552,920,38,0.0440783948001225,1
552,921,38,0.0478403954805925,1
552,922,38,0.0557287188538553,1
552,923,38,0.0699722156548417,1
552,924,38,0.0828254733250303,1
552,925,38,0.068056231036959,1
552,926,38,0.048529083734924,1
552,938,38,0.0411454736502995,1
553,920,38,0.0444656386647112,1
553,921,38,0.0485243798756313,1
553,922,38,0.0500481275093197,1
553,923,38,0.0497678640032312,1
553,924,38,0.047080954694417,1
553,925,38,0.0415900262006044,1
554,920,38,0.0434944971766896,1
554,921,38,0.0465533168501453,1
554,922,38,0.0452765029057523,1
554,923,38,0.0433018687319183,1
554,936,38,0.0430753616867698,1
555,920,38,0.044094950222139,1
555,921,38,0.044497646534841,1
555,922,38,0.0419107347865079,1
555,932,38,0.0459397713963312,1
555,933,38,0.0563332945346043,1
555,934,38,0.0564840667417727,1
555,935,38,0.0511463002319186,1
555,936,38,0.0457493786364076,1
556,919,38,0.0421292804146351,1
556,920,38,0.0473942209098419,1
556,921,38,0.0446012801244881,1
556,931,38,0.0458362324245434,1
556,932,38,0.0793049914889343,1
556,933,38,0.101710997999335,1
556,934,38,0.0903980920454647,1
556,935,38,0.0608662685666192,1
557,919,38,0.0464965893884222,1
557,920,38,0.0533994650533316,1
557,921,38,0.0477057731903291,1
557,931,38,0.0554445570919622,1
557,932,38,0.104399323872672,1
557,933,38,0.134826372875943,1
557,934,38,0.113074256874577,1
557,935,38,0.0657254038766029,1
558,919,38,0.0472243196748831,1
558,920,38,0.0535295835334907,1
558,921,38,0.047863168647651,1
558,931,38,0.0452715233029838,1
558,932,38,0.0841827962542487,1
558,933,38,0.107082037555267,1
558,934,38,0.0879943875064805,1
558,935,38,0.0510820411885924,1
559,919,38,0.0425759659218262,1
559,920,38,0.0479909784520423,1
559,921,38,0.0459884968905219,1
559,922,38,0.0417590488411551,1
559,932,38,0.0453130362129257,1
559,933,38,0.0551250839449648,1
559,934,38,0.0469036516394907,1
560,920,38,0.0420749427297021,1
560,921,38,0.0446100228146908,1
560,922,38,0.0426770610494758,1
560,945,38,0.0500464622349954,1
564,916,38,0.0437301875609285,1
564,917,38,0.042542000813692,1
565,916,38,0.0503624318178299,1
565,917,38,0.0498082901594745,1
566,916,38,0.0440809197452831,1
566,917,38,0.0445176163098957,1
542,921,39,0.058328677053307,1
543,918,39,0.0569610326673188,1
543,919,39,0.057676641054315,1
543,920,39,0.0615928093714199,1
543,921,39,0.0657268745084737,1
543,922,39,0.0650920157060023,1
544,917,39,0.0573020678727751,1
544,918,39,0.0647391830051705,1
544,919,39,0.070302215714532,1
544,920,39,0.0721953622845384,1
544,921,39,0.0721380400819851,1
544,922,39,0.0752171323076455,1
544,925,39,0.0811382314371439,1
544,926,39,0.0686928145878377,1
544,927,39,0.0568429766125414,1
544,928,39,0.0535853053425374,1
544,929,39,0.0515825642577457,1
544,930,39,0.0460241002393064,1
544,931,39,0.0425977631732499,1
545,917,39,0.0556456065262144,1
545,918,39,0.0675123783949645,1
545,919,39,0.0791811880750441,1
545,920,39,0.0797217588290033,1
545,921,39,0.0803812831557199,1
545,922,39,0.0983263171216931,1
545,923,39,0.117126172082788,1
545,924,39,0.113068309466276,1
545,925,39,0.0973881188689249,1
545,926,39,0.0755460780540461,1
545,927,39,0.0564721286712919,1
545,928,39,0.0487905047701675,1
545,929,39,0.0443858001150034,1
546,918,39,0.0621962442311221,1
546,919,39,0.07248270861324,1
546,920,39,0.0728865160099474,1
546,921,39,0.0804438282641085,1
546,922,39,0.116288528284187,1
546,923,39,0.143265366783807,1
546,924,39,0.126583178462821,1
546,925,39,0.0952068365869333,1
546,926,39,0.0712776717769394,1
546,927,39,0.0529820164646754,1
546,928,39,0.0437699919426675,1
547,919,39,0.0563123001833013,1
547,920,39,0.0559538012243789,1
547,922,39,0.101615428554671,1
547,923,39,0.126161658602846,1
547,924,39,0.110631472456319,1
547,925,39,0.0818707845310635,1
547,926,39,0.0642557181843717,1
547,927,39,0.0495822345766834,1
547,934,39,0.0428865233631067,1
547,935,39,0.0448528311653192,1
548,921,39,0.0489083067084084,1
548,922,39,0.0691590913986462,1
548,923,39,0.087978464672438,1
548,924,39,0.087854023263839,1
548,925,39,0.0716099642921931,1
548,926,39,0.0577607644413671,1
548,927,39,0.0456408330281772,1
548,934,39,0.051527410155855,1
548,935,39,0.0578914181882732,1
548,936,39,0.0497068544075313,1
549,920,39,0.0425685559917565,1
549,921,39,0.0423995576815125,1
549,922,39,0.0570941897324462,1
549,923,39,0.0862647135637329,1
549,924,39,0.109940816150514,1
549,925,39,0.0859324426754185,1
549,926,39,0.0568932538396252,1
549,927,39,0.0426179194806559,1
549,934,39,0.0515779685331494,1
549,935,39,0.0615830177746623,1
549,936,39,0.0550817057115103,1
549,937,39,0.0438215911164146,1
550,919,39,0.0429506337212255,1
550,920,39,0.0420256170879465,1
550,921,39,0.0428938305652149,1
550,922,39,0.0642903158804798,1
550,923,39,0.114501818695832,1
550,924,39,0.153851904948391,1
550,925,39,0.114939915604762,1
550,926,39,0.0624129894165545,1
550,934,39,0.0414648521794375,1
550,935,39,0.0502259550175234,1
550,936,39,0.0488663450394765,1
550,937,39,0.043697336240167,1
551,919,39,0.0418329913465426,1
551,920,39,0.0432109490791985,1
551,921,39,0.045100321748301,1
551,922,39,0.0600862821881307,1
551,923,39,0.0934859594017366,1
551,924,39,0.121443244380002,1
551,925,39,0.0903940261808806,1
551,926,39,0.0525630864306787,1
552,920,39,0.0428638664408468,1
552,921,39,0.046159706555307,1
552,922,39,0.0525448927680121,1
552,923,39,0.0618051426612399,1
552,924,39,0.0690165212081985,1
552,925,39,0.0558485699445926,1
552,926,39,0.041318672993498,1
553,920,39,0.0441858293243476,1
553,921,39,0.0474959378119956,1
553,922,39,0.0471422995076757,1
553,923,39,0.0456280947609432,1
553,924,39,0.042841163561341,1
554,920,39,0.0436750848230185,1
554,921,39,0.0454096897079213,1
554,922,39,0.0421937989812327,1
555,920,39,0.0438989290512686,1
555,921,39,0.0421582361829594,1
556,919,39,0.0417737416430263,1
556,920,39,0.0434209007023305,1
556,932,39,0.045292406816223,1
556,933,39,0.0535260961895323,1
556,934,39,0.049561580849674,1
557,919,39,0.0415762795773266,1
557,920,39,0.042166351691923,1
557,932,39,0.0579520655327403,1
557,933,39,0.0703930596729643,1
557,934,39,0.0604357897470487,1
558,932,39,0.049360434094195,1
558,933,39,0.0602049275770034,1
558,934,39,0.050653622334988,1
559,945,39,0.0439656346421005,1
560,945,39,0.0414516570431112,1
560,946,39,0.0514125224476816,1
561,946,39,0.0462117463779418,1
583,930,39,0.0451268444859566,1
583,931,39,0.0455089952063457,1
584,932,39,0.0466743195753992,1
584,933,39,0.0433355121393308,1
542,920,40,0.0546546223214062,1
542,921,40,0.062624019683283,1
542,922,40,0.0606266258592275,1
543,918,40,0.0554577170845121,1
543,919,40,0.0588730433351093,1
543,920,40,0.0651449692668217,1
543,921,40,0.0708756864498661,1
543,922,40,0.0678288399906675,1
543,923,40,0.0622116426118872,1
543,928,40,0.0612238105334786,1
543,929,40,0.0579002744199071,1
543,930,40,0.0530646475929173,1
543,931,40,0.0553046794554544,1
544,917,40,0.0564053230558658,1
544,918,40,0.0673810325860015,1
544,919,40,0.0753100957061269,1
544,920,40,0.0762683205046655,1
544,921,40,0.074391177869724,1
544,922,40,0.0788170228580312,1
544,923,40,0.0851897141065691,1
544,924,40,0.086020291302761,1
544,925,40,0.0771528677278227,1
544,926,40,0.0626743942315935,1
544,927,40,0.0541528340763052,1
544,928,40,0.0538781016599368,1
544,929,40,0.0496840433933291,1
544,930,40,0.0440253033675653,1
544,931,40,0.044477279364777,1
544,932,40,0.0465885903881058,1
545,917,40,0.0565018116454493,1
545,918,40,0.0727551918279236,1
545,919,40,0.0859162008440216,1
545,920,40,0.0838170198302597,1
545,921,40,0.0835383729378821,1
545,922,40,0.112495584860347,1
545,923,40,0.138735215067367,1
545,924,40,0.128065856538823,1
545,925,40,0.0990271164620196,1
545,926,40,0.0707853723514461,1
545,927,40,0.0523128357095717,1
545,928,40,0.0467728248770703,1
545,929,40,0.0416165516416274,1
546,917,40,0.0521296014665487,1
546,918,40,0.0656278231265859,1
546,919,40,0.0771835996085351,1
546,920,40,0.0762613350032791,1
546,921,40,0.0872560383928347,1
546,922,40,0.140810644295069,1
546,923,40,0.178491844524453,1
546,924,40,0.149267502054776,1
546,925,40,0.102298028825596,1
546,926,40,0.0707546350639989,1
546,927,40,0.0506261182749627,1
546,928,40,0.0413050209880795,1
547,918,40,0.0517854573885713,1
547,919,40,0.0563860480462353,1
547,920,40,0.0556486342977132,1
547,921,40,0.069412845683916,1
547,922,40,0.120337221078445,1
547,923,40,0.154437811173809,1
547,924,40,0.127503620998443,1
547,925,40,0.0868183794294242,1
547,926,40,0.0632649232152823,1
547,927,40,0.0465040020218593,1
547,935,40,0.0416651257472432,1
548,920,40,0.0432446925112051,1
548,921,40,0.0471596821601195,1
548,922,40,0.0699466526126164,1
548,923,40,0.09052039779381,1
548,924,40,0.082003103552294,1
548,925,40,0.063821476277367,1
548,926,40,0.051105317181989,1
548,934,40,0.0426416415296751,1
548,935,40,0.0466243397187304,1
548,936,40,0.0417390060751803,1
549,919,40,0.0434609321669319,1
549,920,40,0.0410787599493653,1
549,922,40,0.0499571591959865,1
549,923,40,0.066562674610501,1
549,924,40,0.0740116196786808,1
549,925,40,0.058753311192538,1
549,926,40,0.0454458715773314,1
549,935,40,0.0461949746865327,1
549,936,40,0.0437309309869661,1
550,919,40,0.0424252721123127,1
550,921,40,0.0411745483667898,1
550,922,40,0.0541842039517262,1
550,923,40,0.0784446177771538,1
550,924,40,0.0915115712343368,1
550,925,40,0.068633172896047,1
550,926,40,0.0453224412281437,1
551,921,40,0.04391301629884,1
551,922,40,0.0538895314973446,1
551,923,40,0.068484990514857,1
551,924,40,0.0759544054810623,1
551,925,40,0.0563919954545364,1
552,921,40,0.0443551033780674,1
552,922,40,0.0478070845873714,1
552,923,40,0.0501219348463367,1
552,924,40,0.0499828574065822,1
553,920,40,0.0424339553284323,1
553,921,40,0.0445092926416415,1
553,922,40,0.0423471610143796,1
554,920,40,0.0422322273489603,1
554,921,40,0.0416878908041995,1
555,920,40,0.0415296248625716,1
558,946,40,0.0480180121261383,1
559,946,40,0.0485352528193527,1
560,946,40,0.0511126595278735,1
560,947,40,0.068792509371169,1
561,946,40,0.0520692514924967,1
561,947,40,0.0688640026256834,1
561,948,40,0.0626166881508681,1
562,946,40,0.04162110951908,1
562,947,40,0.0539438475553384,1
562,948,40,0.0499493194304987,1
583,929,40,0.0413369856043306,1
583,930,40,0.0495172239972172,1
583,931,40,0.0480218995684734,1
583,932,40,0.0421597365518717,1
584,929,40,0.0452008680923664,1
584,930,40,0.0527628112149002,1
584,931,40,0.0516929535625495,1
584,932,40,0.0485118686912596,1
584,933,40,0.0495316383522452,1
584,934,40,0.0476993337691594,1
584,935,40,0.0417094690828629,1
585,932,40,0.0532912276289859,1
585,933,40,0.0545769005083801,1
585,934,40,0.0550767639558855,1
585,935,40,0.0496886607448647,1
585,936,40,0.0430141466351467,1
586,936,40,0.0447676832020189,1
541,921,41,0.0524978487683501,1
542,919,41,0.0484948374765791,1
542,920,41,0.0561193986984216,1
542,921,41,0.0638495047906698,1
542,922,41,0.0598186109674361,1
542,928,41,0.0660728676897593,1
542,929,41,0.063355875308411,1
542,930,41,0.0578989822102853,1
542,931,41,0.0630187653924334,1
543,918,41,0.0545119548097318,1
543,919,41,0.0610851980729186,1
543,920,41,0.0671497919445188,1
543,921,41,0.0725028757341156,1
543,922,41,0.0681037183888761,1
543,923,41,0.0616875840260658,1
543,925,41,0.0556364745511048,1
543,926,41,0.0531943010938819,1
543,927,41,0.0580303766798617,1
543,928,41,0.0633640719183969,1
543,929,41,0.0573773296214585,1
543,930,41,0.0525626917390369,1
543,931,41,0.0608480424635437,1
543,932,41,0.0720144961913662,1
544,917,41,0.0535336548048095,1
544,918,41,0.0667975215441081,1
544,919,41,0.0754821866686875,1
544,920,41,0.0751216547774731,1
544,921,41,0.0742534196732654,1
544,922,41,0.0799005271090656,1
544,923,41,0.0860362790176214,1
544,924,41,0.0837375462351521,1
544,925,41,0.0708384610806359,1
544,926,41,0.0570480973181125,1
544,927,41,0.0529776856700852,1
544,928,41,0.0543599174266157,1
544,929,41,0.0481274282186747,1
544,930,41,0.043043069963062,1
544,931,41,0.0471230353115149,1
544,932,41,0.052961541159915,1
544,933,41,0.0521389388975815,1
545,917,41,0.055666941501811,1
545,918,41,0.0726575732307628,1
545,919,41,0.0839162009737832,1
545,920,41,0.080221822325697,1
545,921,41,0.0816363052554241,1
545,922,41,0.113076160045233,1
545,923,41,0.138892702439181,1
545,924,41,0.125544036470978,1
545,925,41,0.092306761351137,1
545,926,41,0.0642208014909093,1
545,927,41,0.0494944832705676,1
545,928,41,0.045510271195763,1
546,917,41,0.0512141493471649,1
546,918,41,0.0644655914098489,1
546,919,41,0.0738253792910983,1
546,920,41,0.0723956493691811,1
546,921,41,0.0860114026307182,1
546,922,41,0.141743911605682,1
546,923,41,0.180057591674217,1
546,924,41,0.149611781301123,1
546,925,41,0.100488405495077,1
546,926,41,0.0672253889107609,1
546,927,41,0.0480597953728212,1
547,918,41,0.0505227793523631,1
547,919,41,0.054111569876165,1
547,920,41,0.053622849709122,1
547,921,41,0.0683091202446578,1
547,922,41,0.118390017973717,1
547,923,41,0.152658260102354,1
547,924,41,0.125766296525926,1
547,925,41,0.085141896943828,1
547,926,41,0.0594973265642744,1
547,927,41,0.0426899398918151,1
548,920,41,0.0423402376904436,1
548,921,41,0.0475309085728063,1
548,922,41,0.0688547841428167,1
548,923,41,0.087876964039677,1
548,924,41,0.077033892528126,1
548,925,41,0.059297774795567,1
548,926,41,0.0457476647014699,1
549,919,41,0.0422365121863045,1
549,922,41,0.0482172989648395,1
549,923,41,0.0565375177221954,1
549,924,41,0.0551246189657704,1
549,925,41,0.0453432057932169,1
550,919,41,0.0422201405932719,1
550,922,41,0.0474602155150451,1
550,923,41,0.0540959444125375,1
550,924,41,0.0528938218063045,1
550,925,41,0.0418671835375392,1
551,921,41,0.0420670624137031,1
551,922,41,0.0470753749440836,1
551,923,41,0.0488269623830534,1
551,924,41,0.0455792989791998,1
558,946,41,0.0439766427541924,1
558,947,41,0.0631245373457015,1
559,946,41,0.0443642461666466,1
559,947,41,0.0628862517287494,1
560,946,41,0.0475467016452132,1
560,947,41,0.0681934161195267,1
560,948,41,0.0680875089978881,1
561,946,41,0.0530567862004902,1
561,947,41,0.0774402140565243,1
561,948,41,0.0686010622979557,1
561,949,41,0.051782683733609,1
562,947,41,0.0585534999005593,1
562,948,41,0.0523293262507702,1
562,949,41,0.043068162619358,1
583,930,41,0.0466650470251842,1
583,931,41,0.0446179517913032,1
584,929,41,0.0435238990006364,1
584,930,41,0.0507724028922311,1
584,931,41,0.0491797842704156,1
584,932,41,0.0479168413042013,1
584,933,41,0.0557470260579531,1
584,934,41,0.0626287073223712,1
584,935,41,0.0571805677279179,1
584,936,41,0.0419882159998346,1
585,929,41,0.0429950149039889,1
585,930,41,0.0499185388891729,1
585,931,41,0.0518133020728902,1
585,932,41,0.0537154130092268,1
585,933,41,0.067308793202082,1
585,934,41,0.0831230816364188,1
585,935,41,0.0777853097198299,1
585,936,41,0.0546519189539966,1
586,932,41,0.0558831946743749,1
586,933,41,0.0663812840640514,1
586,934,41,0.0795833247906923,1
586,935,41,0.0748354114226746,1
586,936,41,0.0540246782408855,1
587,936,41,0.0462450410509585,1
540,928,42,0.0542650832978868,1
540,929,42,0.057358503370818,1
541,921,42,0.0515881386013443,1
541,927,42,0.0529721978342437,1
541,928,42,0.0596590149690428,1
541,929,42,0.0630940325478516,1
542,919,42,0.0473423703229257,1
542,920,42,0.0542673757534501,1
542,921,42,0.0597382452610834,1
542,922,42,0.0559906967827852,1
542,926,42,0.0486188030925139,1
542,927,42,0.056349033539663,1
542,928,42,0.0631277002855708,1
542,929,42,0.0613664401980093,1
542,930,42,0.0570639174241935,1
542,931,42,0.0676710822821127,1
542,932,42,0.0831544352916354,1
543,918,42,0.0517966493296471,1
543,919,42,0.0602540964234492,1
543,920,42,0.0646373850019944,1
543,921,42,0.0669688285301199,1
543,922,42,0.0633111724249258,1
543,924,42,0.0548587914416492,1
543,925,42,0.0512309967328615,1
543,926,42,0.0503397397517937,1
543,927,42,0.056672015657558,1
543,928,42,0.0609632653892758,1
543,929,42,0.0540352754411312,1
543,930,42,0.0490906704671255,1
543,931,42,0.0629890067239884,1
543,932,42,0.0797816005699823,1
543,933,42,0.0758266497440192,1
544,917,42,0.049803370030789,1
544,918,42,0.0626435758431241,1
544,919,42,0.0707655674818033,1
544,920,42,0.0694245350445952,1
544,921,42,0.0696701251602881,1
544,922,42,0.0753525061340488,1
544,923,42,0.0802427139490385,1
544,924,42,0.0749753755669394,1
544,925,42,0.0623056441034539,1
544,926,42,0.0516717970092019,1
544,927,42,0.0512236760139163,1
544,928,42,0.0520112967019696,1
544,929,42,0.0447688889038836,1
544,931,42,0.0460766915488928,1
544,932,42,0.0547150750234198,1
544,933,42,0.0540815300575095,1
544,934,42,0.042748962512469,1
545,916,42,0.044926703383154,1
545,917,42,0.0527879957856881,1
545,918,42,0.0669296999902333,1
545,919,42,0.0749509263120869,1
545,920,42,0.071690205643645,1
545,921,42,0.0757148546881625,1
545,922,42,0.0995530511848232,1
545,923,42,0.118552403847277,1
545,924,42,0.105976371098208,1
545,925,42,0.0790565358037873,1
545,926,42,0.0570773153130755,1
545,927,42,0.047457258031099,1
545,928,42,0.0432348008898534,1
546,917,42,0.0491616608953016,1
546,918,42,0.0595275772455878,1
546,919,42,0.0658170804721974,1
546,920,42,0.0654045249785526,1
546,921,42,0.0793092087420933,1
546,922,42,0.119916436534406,1
546,923,42,0.149649812273842,1
546,924,42,0.128091592596562,1
546,925,42,0.0906316683963893,1
546,926,42,0.0621895128462722,1
546,927,42,0.0461166365057371,1
547,918,42,0.0484088055121359,1
547,919,42,0.0508465454468069,1
547,920,42,0.0511442402659525,1
547,921,42,0.0635242194037418,1
547,922,42,0.0981885318915604,1
547,923,42,0.125208375559932,1
547,924,42,0.108418549962166,1
547,925,42,0.0782691800457401,1
547,926,42,0.0544624831861361,1
548,919,42,0.0417637986576937,1
548,920,42,0.0415310630540335,1
548,921,42,0.0468498492213048,1
548,922,42,0.0627554465932683,1
548,923,42,0.0774811808862495,1
548,924,42,0.0696076178990432,1
548,925,42,0.0544429324330298,1
549,919,42,0.0411458953756154,1
549,922,42,0.0472917957254268,1
549,923,42,0.0508209499641728,1
549,924,42,0.045431916794763,1
550,919,42,0.041665071679895,1
550,921,42,0.0410852804715572,1
550,922,42,0.0445501486333029,1
550,923,42,0.0422900929283628,1
551,921,42,0.041348683075112,1
551,922,42,0.0422240091120351,1
555,919,42,0.0426453748800678,1
557,947,42,0.0446960358555622,1
558,947,42,0.0497545958759849,1
558,948,42,0.0588336877123603,1
559,947,42,0.0519835006782641,1
559,948,42,0.0604333999702586,1
560,946,42,0.0419870346282766,1
560,947,42,0.0618405351473664,1
560,948,42,0.0629144965114449,1
560,949,42,0.0558082411095762,1
561,946,42,0.0489234239389629,1
561,947,42,0.0745315367056306,1
561,948,42,0.0684720035378212,1
561,949,42,0.0532638533305962,1
561,950,42,0.0429861127151091,1
562,947,42,0.0560857742145809,1
562,948,42,0.0517541902411118,1
562,949,42,0.043583856986414,1
584,930,42,0.0439190096643871,1
584,931,42,0.0421427539978046,1
584,932,42,0.0442991950366693,1
584,933,42,0.0590466644036237,1
584,934,42,0.0728039930164018,1
584,935,42,0.0680439144950408,1
584,936,42,0.0436545960014212,1
585,929,42,0.0411669573111036,1
585,930,42,0.0461898112547803,1
585,931,42,0.0464088380823064,1
585,932,42,0.0538078141072871,1
585,933,42,0.0836787804344022,1
585,934,42,0.112911038363855,1
585,935,42,0.104855511716308,1
585,936,42,0.0616152581343893,1
586,930,42,0.0449560457330179,1
586,931,42,0.0478478189274993,1
586,932,42,0.0579923781475523,1
586,933,42,0.0878848470590434,1
586,934,42,0.113507747245442,1
586,935,42,0.101878996063638,1
586,936,42,0.0598224659693622,1
587,934,42,0.0812116386757842,1
587,935,42,0.069507647372236,1
587,936,42,0.0467134156748769,1
538,928,43,0.0495437440315054,1
539,927,43,0.0483856646871097,1
539,928,43,0.0504682524317114,1
539,929,43,0.0518168110437879,1
540,927,43,0.0499305634674108,1
540,928,43,0.0526523948764224,1
540,929,43,0.0554637077466918,1
540,930,43,0.0560635795681481,1
541,926,43,0.0489281980858083,1
541,927,43,0.0520112588548259,1
541,928,43,0.0570297252331968,1
541,929,43,0.0604449974164458,1
541,930,43,0.0598089112851705,1
541,931,43,0.0607856108965863,1
542,919,43,0.0466727894694453,1
542,920,43,0.0526600075590478,1
542,921,43,0.0552237244150064,1
542,925,43,0.0465202925138696,1
542,926,43,0.0495975248227521,1
542,927,43,0.0544884246997986,1
542,928,43,0.0581967905708621,1
542,929,43,0.0573473384634163,1
542,930,43,0.0565213569918208,1
542,931,43,0.0683192632791786,1
542,932,43,0.0862770517325903,1
542,933,43,0.0780250389349788,1
543,918,43,0.0490945308757864,1
543,919,43,0.0569068193372866,1
543,920,43,0.0599682207266184,1
543,921,43,0.0589302898433751,1
543,924,43,0.0499598139027828,1
543,925,43,0.0487799129766567,1
543,926,43,0.0503431946553431,1
543,927,43,0.0549000934889331,1
543,928,43,0.0560729224059157,1
543,929,43,0.0506351421153759,1
543,930,43,0.0482871864191126,1
543,931,43,0.0621355536327765,1
543,932,43,0.0806129887763971,1
543,933,43,0.0737436402741016,1
543,934,43,0.0500201206229562,1
544,917,43,0.0461222811368884,1
544,918,43,0.0561823655321261,1
544,919,43,0.0624115566318274,1
544,920,43,0.0621219989485847,1
544,921,43,0.0623308989617945,1
544,923,43,0.0672920809847559,1
544,924,43,0.0615829907409882,1
544,925,43,0.0539563911801189,1
544,926,43,0.0492325918493948,1
544,927,43,0.0500295067146023,1
544,928,43,0.0485816209771622,1
544,929,43,0.0424766739402389,1
544,931,43,0.0455757089072799,1
544,932,43,0.0550429069824477,1
544,933,43,0.0530231454964451,1
544,934,43,0.0418714359344745,1
545,916,43,0.0429698654769774,1
545,917,43,0.0489642826339916,1
545,918,43,0.0577107737712287,1
545,919,43,0.0622502683254356,1
545,920,43,0.0624520422621536,1
545,921,43,0.0680008065983273,1
545,922,43,0.0816868311923096,1
545,923,43,0.0895306679514799,1
545,924,43,0.0799217755769051,1
545,925,43,0.0634477898003375,1
545,926,43,0.0512844098661405,1
545,927,43,0.0463176264659064,1
545,928,43,0.0414318683936729,1
546,917,43,0.0468687295392934,1
546,918,43,0.052258335822594,1
546,919,43,0.0558603079658851,1
546,920,43,0.0588458744926428,1
546,921,43,0.0708533404148583,1
546,922,43,0.0926798801210105,1
546,923,43,0.106974789563393,1
546,924,43,0.0949829653250092,1
546,925,43,0.0716601009441716,1
546,926,43,0.0529974094387057,1
546,927,43,0.0425504109897032,1
547,918,43,0.0453990925076756,1
547,919,43,0.046924516229158,1
547,920,43,0.0498836330091801,1
547,921,43,0.0594246167944256,1
547,922,43,0.0779597850524458,1
547,923,43,0.0921081611677578,1
547,924,43,0.0845622192769215,1
547,925,43,0.0641543364997768,1
547,926,43,0.0455235771701531,1
548,919,43,0.0412469472493864,1
548,920,43,0.0426162325793923,1
548,921,43,0.0474240444591046,1
548,922,43,0.0571612008037955,1
548,923,43,0.0647460603718605,1
548,924,43,0.0598957542598366,1
548,925,43,0.0469473164298906,1
549,921,43,0.0415778042765456,1
549,922,43,0.0461163175083828,1
549,923,43,0.0462216352959262,1
550,919,43,0.0410434674878329,1
554,919,43,0.0414337526407574,1
555,918,43,0.0423900147945566,1
555,919,43,0.0419338242475534,1
557,948,43,0.0438021052441262,1
558,947,43,0.0415188113929332,1
558,948,43,0.0458127401617539,1
558,949,43,0.0457402628815025,1
559,947,43,0.0438124429211005,1
559,948,43,0.0488002422995769,1
559,949,43,0.0488103366734843,1
560,947,43,0.0527263049414009,1
560,948,43,0.0557966815105327,1
560,949,43,0.0519764989566732,1
560,950,43,0.0463148636244138,1
561,946,43,0.0429937740583479,1
561,947,43,0.0616790359783167,1
561,948,43,0.0618062888890215,1
561,949,43,0.0514739429552278,1
561,950,43,0.0427509603009847,1
562,947,43,0.0481367548362378,1
562,948,43,0.0490712332554504,1
562,949,43,0.043478395920398,1
584,933,43,0.055584013003154,1
584,934,43,0.0721050806265272,1
584,935,43,0.0675559188304636,1
584,936,43,0.0413458796831082,1
585,932,43,0.051461047892684,1
585,933,43,0.0897420604694413,1
585,934,43,0.125056381430695,1
585,935,43,0.113366134047057,1
585,936,43,0.0619768821860372,1
586,930,43,0.0410235085262478,1
586,931,43,0.0421240034414516,1
586,932,43,0.0586174020993876,1
586,933,43,0.100615215053526,1
586,934,43,0.133219858945642,1
586,935,43,0.114689832492435,1
586,936,43,0.0614058877352503,1
587,930,43,0.0419559675300054,1
587,931,43,0.0438050086607241,1
587,932,43,0.0555290589504516,1
587,933,43,0.0802599073657635,1
587,934,43,0.0932227054833893,1
587,935,43,0.0762729486696707,1
587,936,43,0.0466432741040673,1
537,928,44,0.0471742749373965,1
538,927,44,0.0480134704688902,1
538,928,44,0.0500222400630053,1
538,929,44,0.0488108016526788,1
539,926,44,0.0447471240928688,1
539,927,44,0.0481452866637825,1
539,928,44,0.0501295042750836,1
539,929,44,0.0502458193612492,1
539,930,44,0.0515938643335179,1
540,926,44,0.048469479890277,1
540,927,44,0.0497412682746556,1
540,928,44,0.0503994787648111,1
540,929,44,0.05216948694931,1
540,930,44,0.0532272605493398,1
541,925,44,0.0484424732498551,1
541,926,44,0.0527268239879436,1
541,927,44,0.0540041759024511,1
541,928,44,0.054319685912826,1
541,929,44,0.0566818667283986,1
541,930,44,0.057390830238302,1
541,931,44,0.0577191271765244,1
541,932,44,0.0620657743131998,1
541,933,44,0.0563586899680501,1
542,925,44,0.0475566770709546,1
542,926,44,0.0533914793060036,1
542,927,44,0.055444800395029,1
542,928,44,0.0539611545134946,1
542,929,44,0.0535127037073851,1
542,930,44,0.0547076137293693,1
542,931,44,0.0627314190637317,1
542,932,44,0.076134298361967,1
542,933,44,0.068423083401177,1
542,934,44,0.0493908686044923,1
543,918,44,0.0454613943129974,1
543,919,44,0.0513592282625687,1
543,920,44,0.0542569677889232,1
543,923,44,0.0465822915420414,1
543,924,44,0.0442519536911865,1
543,925,44,0.0462368606611771,1
543,926,44,0.0513004192079402,1
543,927,44,0.0536848757709679,1
543,928,44,0.0506094060576365,1
543,929,44,0.047091211270369,1
543,930,44,0.0470962611606901,1
543,931,44,0.0561337860197755,1
543,932,44,0.0699687120906788,1
543,933,44,0.063093540534983,1
543,934,44,0.0454090679334171,1
544,917,44,0.0427136051701188,1
544,918,44,0.0497694319563288,1
544,919,44,0.0539793698031006,1
544,920,44,0.0564603041422423,1
544,921,44,0.0571289225969248,1
544,922,44,0.0575346601979626,1
544,923,44,0.0541840850035602,1
544,924,44,0.0490772617647738,1
544,925,44,0.0466928268286853,1
544,926,44,0.0485930616280397,1
544,927,44,0.0496420168435794,1
544,928,44,0.0447106989203918,1
544,931,44,0.042039731369192,1
544,932,44,0.0489397901252606,1
544,933,44,0.0464943185597981,1
545,916,44,0.0412821018391809,1
545,917,44,0.0462013275999452,1
545,918,44,0.0503389395550404,1
545,919,44,0.0526313788981801,1
545,920,44,0.0573650617401537,1
545,921,44,0.0627573227302506,1
545,922,44,0.0676837881089378,1
545,923,44,0.0660203088205818,1
545,924,44,0.0595245386606194,1
545,925,44,0.0518946626184497,1
545,926,44,0.0489162113547141,1
545,927,44,0.0468784778821725,1
546,916,44,0.0442424892018855,1
546,917,44,0.0466399273352142,1
546,918,44,0.0472601663267344,1
546,919,44,0.0486173486808475,1
546,920,44,0.0550561697029592,1
546,921,44,0.0643923625934576,1
546,922,44,0.0730924423190065,1
546,923,44,0.0747309857463764,1
546,924,44,0.068822895220853,1
546,925,44,0.0559936488599964,1
546,926,44,0.045974379905909,1
547,916,44,0.0455888472728905,1
547,917,44,0.0455300706586709,1
547,918,44,0.0438277547941085,1
547,919,44,0.044007025900509,1
547,920,44,0.0490776402362112,1
547,921,44,0.0575489015374764,1
547,922,44,0.0667277638514707,1
547,923,44,0.0700259261585357,1
547,924,44,0.0657965240664148,1
547,925,44,0.051603039562506,1
548,920,44,0.042807233596983,1
548,921,44,0.0491481656851929,1
548,922,44,0.0560360160340398,1
548,923,44,0.0566234091115333,1
548,924,44,0.0509811839572749,1
549,921,44,0.0432895386731631,1
549,922,44,0.0468071738633767,1
549,923,44,0.0433034610153225,1
550,919,44,0.0411549246227635,1
551,919,44,0.0440014596670126,1
551,920,44,0.0413313247529749,1
552,919,44,0.0428874371012912,1
554,918,44,0.0411699445320912,1
555,918,44,0.0418042815846526,1
556,948,44,0.041867294375603,1
557,949,44,0.0413343390076366,1
558,949,44,0.0411856592068433,1
558,950,44,0.0414972493344742,1
559,949,44,0.0430468925245792,1
559,950,44,0.0426270838961744,1
560,947,44,0.0439465948254347,1
560,948,44,0.0474077972209729,1
560,949,44,0.0462983893034196,1
560,950,44,0.0427831411866286,1
561,947,44,0.0480079988532532,1
561,948,44,0.051591588098159,1
561,949,44,0.0465508892262115,1
562,948,44,0.0428200448551371,1
580,948,44,0.0433525487607461,1
584,933,44,0.0462025116748706,1
584,934,44,0.0596728616169148,1
584,935,44,0.0552209669802486,1
585,932,44,0.0461316347881256,1
585,933,44,0.0802327493367666,1
585,934,44,0.110039164656875,1
585,935,44,0.0964724126330046,1
585,936,44,0.0539256376724673,1
586,932,44,0.0550339209891781,1
586,933,44,0.0955421730938902,1
586,934,44,0.125075305002562,1
586,935,44,0.104062711376298,1
586,936,44,0.0561969961565469,1
587,932,44,0.051590928476511,1
587,933,44,0.0760735374760687,1
587,934,44,0.0888645203746097,1
587,935,44,0.0717171690301883,1
587,936,44,0.0441159797172182,1
588,932,44,0.0470554997868881,1
588,933,44,0.0553145629667039,1
588,934,44,0.0520850391581688,1
588,935,44,0.0421434109160851,1
537,927,45,0.0462827584330573,1
537,928,45,0.0473274585482943,1
538,926,45,0.0438317692947118,1
538,927,45,0.0490686109890631,1
538,928,45,0.0515495345147352,1
538,929,45,0.0479859718155997,1
539,926,45,0.0450509447425646,1
539,927,45,0.0498597622749533,1
539,928,45,0.0516002118401956,1
539,929,45,0.0495909123860682,1
539,930,45,0.0486575747879024,1
540,925,45,0.0467584754028601,1
540,926,45,0.0521149492151887,1
540,927,45,0.0535239659360135,1
540,928,45,0.0510056926862103,1
540,929,45,0.051248865991439,1
540,930,45,0.0512793167219408,1
541,925,45,0.052523244201796,1
541,926,45,0.0605958993852499,1
541,927,45,0.059995838328075,1
541,928,45,0.0535849106508956,1
541,929,45,0.0545643676970692,1
541,930,45,0.0553222026830035,1
541,931,45,0.0547929698519601,1
541,932,45,0.0542393039862688,1
541,933,45,0.0511036248739906,1
541,934,45,0.0453849593028582,1
542,924,45,0.0442206243662766,1
542,925,45,0.0509988802003381,1
542,926,45,0.0591564265271885,1
542,927,45,0.0585816311418237,1
542,928,45,0.0518136102567749,1
542,929,45,0.0518781991109252,1
542,930,45,0.0529636822269034,1
542,931,45,0.0555308972402901,1
542,932,45,0.0596899198652694,1
542,933,45,0.0565778357437422,1
542,934,45,0.0476690993080504,1
543,923,45,0.0436089523460774,1
543,924,45,0.0425473859215719,1
543,925,45,0.0458758313503593,1
543,926,45,0.0511680407126267,1
543,927,45,0.0515104600421968,1
543,928,45,0.0461778515573602,1
543,929,45,0.045100308231464,1
543,930,45,0.0460085450632315,1
543,931,45,0.0487636441115857,1
543,932,45,0.054311132458342,1
543,933,45,0.0513616288528284,1
543,934,45,0.0430202346185531,1
544,917,45,0.0423396889068594,1
544,918,45,0.0470162468921007,1
544,919,45,0.0505724293982079,1
544,920,45,0.0551220940206098,1
544,922,45,0.0517078274900371,1
544,923,45,0.0466298383680415,1
544,924,45,0.0435325119292034,1
544,925,45,0.0438681971705562,1
544,926,45,0.046867096705378,1
544,927,45,0.0469646720486603,1
544,932,45,0.0417205718128142,1
545,916,45,0.041532814836115,1
545,917,45,0.0457234965968281,1
545,918,45,0.0473517726347763,1
545,919,45,0.0497144400564826,1
545,921,45,0.0592580244811762,1
545,922,45,0.0568909884177359,1
545,923,45,0.0516877414701838,1
545,924,45,0.047985155398642,1
545,925,45,0.0454039585690129,1
545,926,45,0.044735786169953,1
545,927,45,0.0430320267071938,1
546,916,45,0.046338512682513,1
546,917,45,0.0480582003860495,1
546,918,45,0.0460269604020258,1
546,920,45,0.0532297584608263,1
546,921,45,0.0587144259557182,1
546,922,45,0.0594455084177671,1
546,923,45,0.0557734758046887,1
546,924,45,0.0518525495609429,1
546,925,45,0.0450098508545712,1
547,916,45,0.0480217535866332,1
547,917,45,0.0475788717173875,1
547,918,45,0.044103187382636,1
547,919,45,0.0442611992077274,1
547,920,45,0.0493337518578622,1
547,921,45,0.0559229449887657,1
547,922,45,0.0590579969198048,1
547,923,45,0.0556259314182073,1
547,924,45,0.0501792948960337,1
548,916,45,0.0437895724328153,1
548,917,45,0.0433458254859984,1
548,918,45,0.0414287324874778,1
548,919,45,0.0417107666992195,1
548,920,45,0.0452102947345237,1
548,921,45,0.0515236957290342,1
548,922,45,0.0550522173798063,1
548,923,45,0.0497060109568995,1
548,924,45,0.0419044873044243,1
549,920,45,0.0423459985663934,1
549,921,45,0.0456165946359827,1
549,922,45,0.0459671078475771,1
550,919,45,0.0431152309493266,1
550,920,45,0.0429018460495843,1
551,918,45,0.0428308502146733,1
551,919,45,0.0484085459888646,1
551,920,45,0.0431067288588234,1
552,918,45,0.042037368626076,1
552,919,45,0.0465720133391501,1
555,948,45,0.0425116284808451,1
556,948,45,0.042143759650481,1
556,949,45,0.0417165519054761,1
578,920,45,0.0416128047743977,1
582,946,45,0.042346998812335,1
584,934,45,0.0430718824529136,1
585,933,45,0.0603439293224704,1
585,934,45,0.077738536056909,1
585,935,45,0.067179539799494,1
585,936,45,0.0410543242113499,1
586,932,45,0.0463493045252121,1
586,933,45,0.0733514843909296,1
586,934,45,0.0919208718736205,1
586,935,45,0.0767027786810629,1
586,936,45,0.0453713559580531,1
587,932,45,0.0437975284431017,1
587,933,45,0.0604209428532352,1
587,934,45,0.0694404416584333,1
587,935,45,0.0577705398179202,1
588,933,45,0.0462905549446666,1
588,934,45,0.0450963045443303,1
589,933,45,0.0431109244850431,1
536,928,46,0.0420681032101558,1
537,927,46,0.0453964269874097,1
537,928,46,0.0464576446775194,1
537,929,46,0.0427796538426702,1
538,926,46,0.0413010984019682,1
538,927,46,0.0480325940899458,1
538,928,46,0.0505964244873356,1
538,929,46,0.0453208138009631,1
539,926,46,0.0432600665616635,1
539,927,46,0.0490745854310383,1
539,928,46,0.0508254375540728,1
539,929,46,0.0472212486495058,1
539,930,46,0.0437825355674481,1
540,925,46,0.0453528865519107,1
540,926,46,0.0536056725126014,1
540,927,46,0.0547278727647369,1
540,928,46,0.0505577014525604,1
540,929,46,0.0490580408224915,1
540,930,46,0.047901718666912,1
540,931,46,0.0469767561009812,1
540,932,46,0.0452840669277644,1
540,933,46,0.0450882539161845,1
541,924,46,0.0441199996245563,1
541,925,46,0.0537368453060502,1
541,926,46,0.0657958752582365,1
541,927,46,0.0632956550959946,1
541,928,46,0.0528974226916941,1
541,929,46,0.0517784556669804,1
541,930,46,0.0525596855944774,1
541,931,46,0.0508039836303101,1
541,932,46,0.0473488313710346,1
541,933,46,0.0465538088630138,1
541,934,46,0.0451985513064964,1
542,924,46,0.0441085292366374,1
542,925,46,0.0515637650407793,1
542,926,46,0.0613303556498259,1
542,927,46,0.0584252251169736,1
542,928,46,0.0496074137407364,1
542,929,46,0.0494122414272327,1
542,930,46,0.050616748403521,1
542,931,46,0.0491378550418927,1
542,932,46,0.0472344248622602,1
542,933,46,0.0475395971956607,1
542,934,46,0.0467680723571642,1
542,935,46,0.0412100543943475,1
543,920,46,0.0538020289010305,1
543,922,46,0.0464204355284936,1
543,923,46,0.0421194753010405,1
543,924,46,0.0421879110470146,1
543,925,46,0.044985798994728,1
543,926,46,0.0495426897182157,1
543,927,46,0.0479794188529988,1
543,928,46,0.0424955596649624,1
543,929,46,0.0426477376231838,1
543,930,46,0.0436546798058109,1
543,931,46,0.0418751882084391,1
543,932,46,0.0415722380430492,1
543,933,46,0.0421387881578147,1
543,934,46,0.0417916974093608,1
544,919,46,0.0509775668516808,1
544,920,46,0.0584823094231948,1
544,921,46,0.0567162968157273,1
544,922,46,0.048286786320736,1
544,923,46,0.0420123408505979,1
544,925,46,0.0422091027441385,1
544,926,46,0.0449342971422076,1
544,927,46,0.0432369284400047,1
545,917,46,0.0428191094900134,1
545,918,46,0.0439960691523979,1
545,920,46,0.056210777923601,1
545,921,46,0.0560302200143136,1
545,922,46,0.0492377390609427,1
545,923,46,0.0431939881520706,1
545,924,46,0.0414892014096958,1
546,916,46,0.0445369778272833,1
546,917,46,0.0459321911541147,1
546,918,46,0.0435663391655998,1
546,919,46,0.0454325007221235,1
546,920,46,0.0512964668847873,1
546,921,46,0.0536938185103589,1
546,922,46,0.0506288378625767,1
546,923,46,0.0448180307166553,1
546,924,46,0.0411125736689246,1
547,916,46,0.0458382923905095,1
547,917,46,0.0460418829901268,1
547,918,46,0.0430888433800415,1
547,919,46,0.0451635156648679,1
547,920,46,0.0506915019191313,1
547,921,46,0.0552281903779671,1
547,922,46,0.0542162604824693,1
547,923,46,0.0458610168969546,1
548,916,46,0.0423447901611614,1
548,917,46,0.0421441813757969,1
548,918,46,0.0410343544362951,1
548,919,46,0.0438446292134793,1
548,920,46,0.0492467412744167,1
548,921,46,0.054130650243342,1
548,922,46,0.0529641201724238,1
548,923,46,0.042402458394743,1
549,919,46,0.0417545098872743,1
549,920,46,0.0460861046742131,1
549,921,46,0.0476116203101874,1
549,922,46,0.0431417509836148,1
550,919,46,0.0434158913625205,1
550,920,46,0.044073447637763,1
551,919,46,0.0488906861596326,1
551,920,46,0.0426927486905537,1
552,919,46,0.0461789329043241,1
555,948,46,0.0413192569208585,1
555,949,46,0.0427735036818134,1
563,952,46,0.0418117239551312,1
563,953,46,0.0458945170258945,1
578,921,46,0.0426768177464089,1
582,946,46,0.0436101796748814,1
585,934,46,0.0461624802102692,1
585,935,46,0.0410984945314554,1
586,933,46,0.0475593696248946,1
586,934,46,0.0557672580596466,1
586,935,46,0.0487601081070139,1
587,933,46,0.0426027157423443,1
587,934,46,0.0471701658189339,1
587,935,46,0.0418116104137,1
536,928,47,0.0437918621850112,1
537,927,47,0.0441079399025421,1
537,928,47,0.0450904787875626,1
537,929,47,0.0414229040273427,1
538,927,47,0.046303882545996,1
538,928,47,0.047334314288045,1
538,929,47,0.0421257768504723,1
539,926,47,0.0427088066929668,1
539,927,47,0.047376184042485,1
539,928,47,0.048053610068188,1
539,929,47,0.0439694545002503,1
540,925,47,0.0438364082731867,1
540,926,47,0.0523098890390952,1
540,927,47,0.0526143314632951,1
540,928,47,0.0491559730102718,1
540,929,47,0.0460759778598967,1
540,930,47,0.0439317236013145,1
540,931,47,0.0422371664012176,1
540,932,47,0.0417603734911858,1
540,933,47,0.0444090544814608,1
540,934,47,0.0450188855084541,1
541,924,47,0.0430613230998117,1
541,925,47,0.0517594131469472,1
541,926,47,0.063168575200804,1
541,927,47,0.0596448655440209,1
541,928,47,0.0507051701447543,1
541,929,47,0.0472393233640064,1
541,930,47,0.0471609959966805,1
541,931,47,0.0455646467278398,1
541,932,47,0.04334091887415,1
541,933,47,0.0440684355945856,1
541,934,47,0.0463469255618917,1
541,935,47,0.0452224544811321,1
542,920,47,0.051093714329067,1
542,924,47,0.0441153768662859,1
542,925,47,0.0500447537067925,1
542,926,47,0.0581085796922867,1
542,927,47,0.0540262353805135,1
542,928,47,0.0470971532719353,1
542,929,47,0.0452931313186888,1
542,930,47,0.045947016420989,1
542,931,47,0.044083598782386,1
542,932,47,0.0416820839710036,1
542,933,47,0.0427665262905292,1
542,934,47,0.0476458341281234,1
542,935,47,0.0476617137082874,1
542,936,47,0.0438565889108993,1
543,919,47,0.0531508525728748,1
543,920,47,0.0624455163332268,1
543,921,47,0.0584219594491428,1
543,922,47,0.0474941481827705,1
543,923,47,0.0416147484955652,1
543,924,47,0.0429300475784013,1
543,925,47,0.0452229329771636,1
543,926,47,0.0484526595382545,1
543,927,47,0.0454072080166392,1
543,934,47,0.0419802383626089,1
543,935,47,0.0423655330992952,1
544,919,47,0.0541246595811623,1
544,920,47,0.0638711912040297,1
544,921,47,0.059276483073849,1
544,922,47,0.0469917868237786,1
544,925,47,0.0425904721913462,1
544,926,47,0.0445523708013136,1
544,927,47,0.0411517049121786,1
545,920,47,0.0545571118589418,1
545,921,47,0.0524380935351282,1
545,922,47,0.0446023830983912,1
546,916,47,0.041108464550462,1
546,917,47,0.0423342902821425,1
546,919,47,0.0435309872299844,1
546,920,47,0.0486794936908595,1
546,921,47,0.0496163510733926,1
546,922,47,0.0458358215126971,1
547,916,47,0.0415039915327938,1
547,917,47,0.0423315977282025,1
547,919,47,0.0438717250650257,1
547,920,47,0.0499773749774755,1
547,921,47,0.0528975686735342,1
547,922,47,0.0493662679610649,1
548,919,47,0.0443285184629613,1
548,920,47,0.0506972384647745,1
548,921,47,0.0529661855451247,1
548,922,47,0.047362067057872,1
549,919,47,0.0430859156331369,1
549,920,47,0.0477507085634115,1
549,921,47,0.0467289492240124,1
550,919,47,0.0426624953058728,1
550,920,47,0.0430059716521001,1
551,919,47,0.0442836993346775,1
554,948,47,0.0417879505421311,1
554,949,47,0.0445052646242012,1
555,949,47,0.0416433257924521,1
555,950,47,0.0423539275430058,1
563,953,47,0.0442877597925267,1
564,953,47,0.0434710535745135,1
578,921,47,0.0422083782416727,1
537,927,48,0.0417013130233881,1
537,928,48,0.042658140180976,1
538,927,48,0.0437561344813259,1
538,928,48,0.0427945385836275,1
539,926,48,0.0421014222134792,1
539,927,48,0.0447986637925329,1
539,928,48,0.044053813080267,1
539,929,48,0.0412318516457712,1
540,925,48,0.0420868699867133,1
540,926,48,0.048325904047153,1
540,927,48,0.0481453515446003,1
540,928,48,0.0461003189800528,1
540,929,48,0.0435176298916136,1
540,930,48,0.0414244125063572,1
540,933,48,0.043151196549344,1
540,934,48,0.0483194321855744,1
541,924,48,0.0419246706455044,1
541,925,48,0.048375008012781,1
541,926,48,0.0551584597190038,1
541,927,48,0.0519898644051463,1
541,928,48,0.0469272736639158,1
541,929,48,0.0435983335188925,1
541,930,48,0.0427450101893162,1
541,931,48,0.041914516797514,1
541,933,48,0.0413038747602978,1
541,934,48,0.0511012459106702,1
541,935,48,0.0579688047837406,1
541,936,48,0.051860800238277,1
542,920,48,0.0526586937224868,1
542,921,48,0.0508361266688103,1
542,924,48,0.0437611762615448,1
542,925,48,0.0474812098663481,1
542,926,48,0.0512636209707606,1
542,927,48,0.0474293214322882,1
542,928,48,0.0438024566818894,1
542,929,48,0.0419959503339935,1
542,930,48,0.0423699449949077,1
542,931,48,0.0412436653613511,1
542,934,48,0.0527620975259041,1
542,935,48,0.0633122753988289,1
542,936,48,0.0566127254035306,1
542,937,48,0.0425699076754613,1
543,919,48,0.0573212617813833,1
543,920,48,0.0684676781499659,1
543,921,48,0.0628352229655257,1
543,922,48,0.047839335760568,1
543,923,48,0.0414959354979131,1
543,924,48,0.0427219369484752,1
543,925,48,0.0447978635957797,1
543,926,48,0.0463771005489177,1
543,927,48,0.0429851340961068,1
543,934,48,0.0426376783930527,1
543,935,48,0.0506290162848258,1
543,936,48,0.0468534501066943,1
544,919,48,0.0558442013028587,1
544,920,48,0.0665294664452414,1
544,921,48,0.060960778291259,1
544,922,48,0.0459979965235993,1
544,925,48,0.0422932126143535,1
544,926,48,0.0441222569363434,1
545,920,48,0.0523937529028759,1
545,921,48,0.0499903781747157,1
545,922,48,0.0416461913619063,1
546,919,48,0.0418408689591741,1
546,920,48,0.045996120386617,1
546,921,48,0.0463811718202365,1
546,922,48,0.0418227915413061,1
547,919,48,0.0427257297729509,1
547,920,48,0.0492735262387111,1
547,921,48,0.0511417045073223,1
547,922,48,0.0445463828425013,1
548,919,48,0.0445765470160577,1
548,920,48,0.0523484714987651,1
548,921,48,0.052721249644345,1
548,922,48,0.0426342207861358,1
549,919,48,0.0439238892425614,1
549,920,48,0.0495207762219934,1
549,921,48,0.0467032564201516,1
550,920,48,0.0416094255651357,1
552,947,48,0.0411663598669061,1
552,948,48,0.0436440069112777,1
553,948,48,0.0419860235688654,1
553,949,48,0.0445695588113038,1
554,949,48,0.0428800487981607,1
554,950,48,0.0439872183274988,1
555,950,48,0.0414661957530401,1
563,953,48,0.043332470850995,1
564,953,48,0.0431679358003442,1
538,927,49,0.0417289089979054,1
539,926,49,0.0427890912982972,1
539,927,49,0.0433275182819006,1
539,928,49,0.041770248892333,1
540,925,49,0.0419051442227049,1
540,926,49,0.045593767401576,1
540,927,49,0.0452348250903984,1
540,928,49,0.0439973883956937,1
540,929,49,0.0411299238809594,1
540,933,49,0.0426379892803048,1
540,934,49,0.0497941353277178,1
540,935,49,0.0541072282681052,1
541,924,49,0.0410064692014651,1
541,925,49,0.0455412625997467,1
541,926,49,0.0477909671108753,1
541,927,49,0.0461229083181274,1
541,928,49,0.044099062043969,1
541,934,49,0.0534807174641947,1
541,935,49,0.068560500973342,1
541,936,49,0.0589082249585779,1
542,920,49,0.0507227852867953,1
542,921,49,0.0493044960157555,1
542,924,49,0.0429320832140608,1
542,925,49,0.0454845729851673,1
542,926,49,0.0457177654579197,1
542,927,49,0.0433976841830169,1
542,928,49,0.0419140328947477,1
542,934,49,0.0537168782343628,1
542,935,49,0.072169204501483,1
542,936,49,0.0622302958470135,1
542,937,49,0.0447869176611382,1
543,919,49,0.055118709404613,1
543,920,49,0.0655314805188424,1
543,921,49,0.0610930486518761,1
543,922,49,0.0477484485482571,1
543,923,49,0.0420976050586968,1
543,924,49,0.0425817511280828,1
543,925,49,0.044437072181294,1
543,926,49,0.0444708372402399,1
543,927,49,0.0417378003733156,1
543,935,49,0.0526689827388477,1
543,936,49,0.0475289243011276,1
544,919,49,0.0522159794620204,1
544,920,49,0.0620744304956453,1
544,921,49,0.0589206604486621,1
544,922,49,0.0466095144518561,1
544,925,49,0.0414087248652793,1
544,926,49,0.0424069432812756,1
545,920,49,0.0492364035974424,1
545,921,49,0.048679061152074,1
545,922,49,0.0421333706095259,1
546,920,49,0.0440282257077351,1
546,921,49,0.0443764005065202,1
547,919,49,0.0426392923033962,1
547,920,49,0.0478812541756213,1
547,921,49,0.0478046623701724,1
548,919,49,0.0454377344414285,1
548,920,49,0.0522468573245729,1
548,921,49,0.0505043802337734,1
549,919,49,0.044408046125417,1
549,920,49,0.0492391934726091,1
549,921,49,0.0453862731394193,1
552,948,49,0.0435363615243947,1
553,948,49,0.0424023637768837,1
553,949,49,0.045201716949733,1
554,949,49,0.0426765447063005,1
554,950,49,0.0436386028798259,1
555,950,49,0.0412055857280194,1
555,951,49,0.0415647145715483,1
561,953,49,0.0418579136906917,1
562,953,49,0.0433116008545928,1
563,953,49,0.0460038736443477,1
564,953,49,0.048230264314936,1
565,953,49,0.0462904414032354,1
565,954,49,0.0515715831793279,1
538,932,50,0.0422471337168568,1
538,933,50,0.0464728105686873,1
539,925,50,0.0410876459180406,1
539,926,50,0.0440428914759322,1
539,927,50,0.0421092268351907,1
539,933,50,0.0454448929583291,1
539,935,50,0.050380582226618,1
540,925,50,0.0426924378033016,1
540,926,50,0.0444705587933967,1
540,927,50,0.0426330637448845,1
540,928,50,0.0410625992189907,1
540,933,50,0.0423050803972817,1
540,934,50,0.0506047021983438,1
540,935,50,0.0574960885517624,1
540,936,50,0.0490555320975354,1
541,925,50,0.0437958631687774,1
541,926,50,0.0434039776223464,1
541,927,50,0.0419756101976036,1
541,928,50,0.0411763434027498,1
541,934,50,0.0558412816660564,1
541,935,50,0.0739815852667601,1
541,936,50,0.0628315571993183,1
541,937,50,0.0450197641028622,1
542,920,50,0.0471982267726456,1
542,921,50,0.0456390650258913,1
542,924,50,0.0427423284488458,1
542,925,50,0.044003435828589,1
542,926,50,0.0418490223152815,1
542,934,50,0.0520135459036544,1
542,935,50,0.0721425871459681,1
542,936,50,0.0627480772137097,1
542,937,50,0.0453260096731244,1
543,919,50,0.0481522072843511,1
543,920,50,0.0561487464550203,1
543,921,50,0.0536879684232845,1
543,922,50,0.0466843977291022,1
543,923,50,0.0431382420127172,1
543,924,50,0.0435584210024571,1
543,925,50,0.0444762061279154,1
543,926,50,0.0426947329622324,1
543,935,50,0.0491232947050246,1
543,936,50,0.0454293594091935,1
544,920,50,0.0541149761191011,1
544,921,50,0.0535041610663707,1
544,922,50,0.0472010599016909,1
544,923,50,0.041451154216773,1
544,925,50,0.0410445974954101,1
545,921,50,0.0472216974084958,1
545,922,50,0.0432879004325128,1
546,920,50,0.0444193083540455,1
546,921,50,0.0432213273066839,1
547,919,50,0.0443089433795484,1
547,920,50,0.0473868731572226,1
547,921,50,0.0440717661432342,1
548,919,50,0.0462580983155469,1
548,920,50,0.050256292206594,1
548,921,50,0.0457599217693051,1
549,919,50,0.0432570523070018,1
549,920,50,0.0459495143324754,1
549,921,50,0.0414681205506357,1
551,947,50,0.0427317258418654,1
552,947,50,0.0411256714840241,1
552,948,50,0.0439043628197619,1
553,948,50,0.0433011982968007,1
553,949,50,0.0454045262761689,1
554,949,50,0.0420139412441044,1
554,950,50,0.0428542208259294,1
560,953,50,0.0415330148853033,1
561,953,50,0.0434057942852457,1
562,953,50,0.0460917709323036,1
563,953,50,0.0491091020261241,1
564,953,50,0.0508936705474912,1
564,954,50,0.0559483566424159,1
565,953,50,0.0514499478661002,1
565,954,50,0.0527959490926072,1
566,953,50,0.0430882486392114,1
566,954,50,0.0440482333299336,1
537,932,51,0.0423443332920691,1
537,933,51,0.0459839660467434,1
538,931,51,0.0421810039432831,1
538,932,51,0.0455496051915727,1
538,933,51,0.0491664026017381,1
538,934,51,0.0517314657346667,1
539,925,51,0.0424983279131898,1
539,926,51,0.0437591379225179,1
539,927,51,0.0411916552757578,1
539,932,51,0.043572359564821,1
539,933,51,0.0463070725195393,1
539,934,51,0.0495956162453609,1
539,935,51,0.0494060236821906,1
540,925,51,0.0438015321302354,1
540,926,51,0.0433144393903729,1
540,933,51,0.04269271084341,1
540,934,51,0.0498721545111589,1
540,935,51,0.0545127441930154,1
540,936,51,0.0477297412457826,1
541,925,51,0.0429381982311413,1
541,934,51,0.0540267165799124,1
541,935,51,0.0668638621803398,1
541,936,51,0.0595182776616988,1
541,937,51,0.0437083497589937,1
542,924,51,0.0429792488652561,1
542,925,51,0.0432075563530994,1
542,934,51,0.0477991150602479,1
542,935,51,0.0625695035761009,1
542,936,51,0.0592692002020475,1
542,937,51,0.0451262740754332,1
543,920,51,0.0449281253544115,1
543,921,51,0.0453434220626096,1
543,923,51,0.0436614138940282,1
543,924,51,0.0446885259008983,1
543,925,51,0.0445502459545296,1
543,926,51,0.0417421122443339,1
543,935,51,0.0438501035324837,1
543,936,51,0.0440852099893621,1
544,921,51,0.0464492966789586,1
544,922,51,0.0452614829964245,1
544,923,51,0.0425890529234561,1
544,924,51,0.0422200108316363,1
544,925,51,0.0419635775092635,1
545,921,51,0.0450776891563478,1
545,922,51,0.0428313989982575,1
546,920,51,0.047122072912717,1
546,921,51,0.0432004816405885,1
547,919,51,0.0481147818659325,1
547,920,51,0.0484217762689671,1
547,921,51,0.0422622428373091,1
548,918,51,0.0442559006076045,1
548,919,51,0.0481274552523488,1
548,920,51,0.0480482736209214,1
548,921,51,0.0413306867582663,1
549,919,51,0.0431983567938045,1
549,920,51,0.0427150487683155,1
552,948,51,0.0432905605460439,1
552,949,51,0.0471001377895555,1
553,948,51,0.0440256548053286,1
553,949,51,0.045939360484485,1
553,950,51,0.0469460836943518,1
554,948,51,0.0424291406310758,1
554,949,51,0.0445027045352643,1
554,950,51,0.0440359978890377,1
555,950,51,0.0425735193743205,1
560,953,51,0.0409924657582833,1
561,953,51,0.0423640084000762,1
562,953,51,0.0468591758388679,1
563,953,51,0.0510466811428747,1
564,953,51,0.051981975979045,1
564,954,51,0.0530793593183604,1
565,953,51,0.0530864529544432,1
565,954,51,0.0517871442898349,1
566,953,51,0.0444104359022071,1
566,954,51,0.0438081121265103,1
537,930,52,0.0412343198202161,1
537,932,52,0.044691045439324,1
537,933,52,0.049272839583389,1
538,929,52,0.0422629808566119,1
538,930,52,0.0435578884390774,1
538,931,52,0.0447990990346859,1
538,932,52,0.0486942865173249,1
538,933,52,0.0504548869832383,1
538,934,52,0.049814734987379,1
539,925,52,0.0421752538808029,1
539,926,52,0.0425294247485025,1
539,931,52,0.0431550001872893,1
539,932,52,0.0468283250099895,1
539,933,52,0.046210724505061,1
539,934,52,0.0459284767272939,1
539,935,52,0.0446808699643943,1
540,925,52,0.0443906337359318,1
540,926,52,0.0422877869559624,1
540,933,52,0.0411121167998324,1
540,934,52,0.0456069219873911,1
540,935,52,0.0480179364318509,1
540,936,52,0.0436008287270115,1
541,925,52,0.0422976542470075,1
541,934,52,0.0476561663983629,1
541,935,52,0.0560784048350224,1
541,936,52,0.0532840799255549,1
541,937,52,0.041022843497865,1
542,924,52,0.0410876972820214,1
542,925,52,0.0413642706915958,1
542,934,52,0.0427560534451844,1
542,935,52,0.0542211481707459,1
542,936,52,0.0565755054410351,1
542,937,52,0.0450696412315694,1
543,923,52,0.0411042797377119,1
543,924,52,0.0426602704344947,1
543,925,52,0.0429472328850242,1
543,936,52,0.0439730634957421,1
544,924,52,0.0417632742044163,1
544,925,52,0.0411802119215129,1
546,921,52,0.0427027565567041,1
547,920,52,0.0492673625610172,1
548,919,52,0.0519836412533694,1
548,920,52,0.0470343810806843,1
549,918,52,0.0429132055994395,1
549,919,52,0.0435829729852711,1
552,948,52,0.0417592975509567,1
553,948,52,0.0437721897803715,1
553,949,52,0.0451606203583722,1
554,948,52,0.044830376995615,1
554,949,52,0.0473732211518041,1
554,950,52,0.0439030084326897,1
555,949,52,0.0447665072371957,1
555,950,52,0.0444156858417166,1
562,953,52,0.0475831484446295,1
563,953,52,0.0547764576838223,1
564,953,52,0.0545218977950643,1
565,953,52,0.0513168016144424,1
565,954,52,0.0521918978651356,1
566,953,52,0.0427205555277289,1
566,954,52,0.0431106649617718,1
537,929,53,0.0422070914387858,1
537,930,53,0.0435865306167821,1
537,931,53,0.0424756818043996,1
537,932,53,0.0459680810598446,1
538,929,53,0.0453428246184121,1
538,930,53,0.0468842414614897,1
538,931,53,0.0463318083313372,1
538,932,53,0.0489107883996904,1
538,933,53,0.0483689092159049,1
538,934,53,0.0465023259340653,1
539,930,53,0.0423626486062692,1
539,931,53,0.0448125455841813,1
539,932,53,0.0480074041124231,1
539,933,53,0.0459779321306852,1
539,934,53,0.0448502629662801,1
539,935,53,0.0423116144363107,1
540,925,53,0.0435809346462443,1
540,926,53,0.0412708639408591,1
540,933,53,0.0409949988135461,1
540,934,53,0.0432588933002078,1
540,935,53,0.043566063422124,1
541,925,53,0.0420399151981759,1
541,934,53,0.0416659448675683,1
541,935,53,0.0460333133154383,1
541,936,53,0.0462166178460139,1
542,925,53,0.0414046779242671,1
542,926,53,0.0411404967508984,1
542,935,53,0.0472024332123349,1
542,936,53,0.0513842019706986,1
543,925,53,0.0423704667448178,1
543,926,53,0.0424724404668754,1
543,927,53,0.0415044240715793,1
543,936,53,0.0425987309787825,1
544,925,53,0.0417235103731884,1
544,926,53,0.0415417494654037,1
546,921,53,0.0415420468358187,1
547,920,53,0.0501505635072044,1
548,919,53,0.0579575749955211,1
548,920,53,0.04799403866395,1
549,919,53,0.0467849197428609,1
549,920,53,0.0414709888234573,1
553,948,53,0.0425253264435095,1
553,949,53,0.0436003286040408,1
554,948,53,0.0444534518844288,1
554,949,53,0.0472691793536781,1
554,950,53,0.0429860667578631,1
555,949,53,0.0462953831588602,1
555,950,53,0.0443674199199855,1
555,951,53,0.0412239821432418,1
561,953,53,0.0435993851288148,1
562,953,53,0.0471753346574211,1
563,953,53,0.0528444420972006,1
564,953,53,0.0547485697456248,1
565,953,53,0.0486737247048074,1
537,929,54,0.0439732527314608,1
537,930,54,0.0482558435773657,1
537,931,54,0.0477784126726251,1
538,928,54,0.0410721042588028,1
538,929,54,0.0472885624980049,1
538,930,54,0.0504643109220282,1
538,931,54,0.0494198432963885,1
538,932,54,0.0475256099726834,1
538,933,54,0.0441249170498744,1
538,934,54,0.0428475408050602,1
539,929,54,0.0411709934386462,1
539,930,54,0.0430926686449261,1
539,931,54,0.0448003425836943,1
539,932,54,0.046105963611204,1
539,933,54,0.0445152589735145,1
539,934,54,0.0440899219587571,1
539,935,54,0.0415411195807973,1
540,932,54,0.0414194437170584,1
540,933,54,0.0416546745288377,1
540,934,54,0.0417417797301425,1
542,926,54,0.041859308628275,1
542,927,54,0.0412726238330428,1
542,935,54,0.0417706462873423,1
542,936,54,0.0442592717067643,1
543,925,54,0.0415721758655988,1
543,926,54,0.0436919754625937,1
543,927,54,0.0424917614337519,1
544,925,54,0.0411744267152563,1
544,926,54,0.0436160622023647,1
544,927,54,0.0415097659255807,1
548,920,54,0.0473455332627949,1
549,919,54,0.0472926013289149,1
549,920,54,0.0410204293907683,1
549,944,54,0.041155819437376,1
549,945,54,0.0490660211630847,1
550,945,54,0.0444719104771015,1
550,946,54,0.0454879846348382,1
553,948,54,0.0411403129219145,1
553,949,54,0.0413236634097361,1
554,948,54,0.0424325847211557,1
554,949,54,0.0443098273806913,1
554,950,54,0.0416535228943212,1
555,949,54,0.0446968955263984,1
555,950,54,0.0432397967128263,1
556,950,54,0.0415945705612199,1
556,951,54,0.0414228364431574,1
562,953,54,0.0488968173969176,1
563,953,54,0.0500044627189198,1
564,953,54,0.0542047387305696,1
565,953,54,0.0489369732164198,1
537,930,55,0.0491358491432748,1
537,931,55,0.0515679552602642,1
538,929,55,0.0455825159864172,1
538,930,55,0.0487837625718479,1
538,931,55,0.0499890318977458,1
538,932,55,0.0445527492727509,1
539,930,55,0.041054186339612,1
539,931,55,0.043385118931297,1
539,932,55,0.0431847399321623,1
539,933,55,0.0431683413054557,1
539,934,55,0.0433187350411868,1
540,932,55,0.0419477330728758,1
540,933,55,0.0422442978844441,1
540,934,55,0.040988048455936,1
542,926,55,0.0412066184143699,1
543,926,55,0.0434490697907386,1
543,927,55,0.042088478490322,1
544,926,55,0.043780370170153,1
544,927,55,0.0417697703963016,1
548,920,55,0.0459419665306678,1
549,944,55,0.0447963632268674,1
549,945,55,0.0572825225264037,1
550,944,55,0.0442085457206905,1
550,945,55,0.0512030331003766,1
550,946,55,0.0514467308588828,1
551,945,55,0.0412971325619783,1
553,919,55,0.0418255381625943,1
553,948,55,0.0410553136438218,1
554,919,55,0.0446704836268066,1
554,948,55,0.0411901035428646,1
554,949,55,0.042600899079445,1
555,949,55,0.0434670471840125,1
555,950,55,0.0435667446707112,1
556,950,55,0.0427208123476328,1
557,950,55,0.0414583640976545,1
557,951,55,0.0458139188299445,1
558,951,55,0.0448941332126031,1
560,952,55,0.0422756839800697,1
561,952,55,0.0455039290958201,1
562,952,55,0.0419966153623762,1
562,953,55,0.0540019212940315,1
564,952,55,0.0421574089525321,1
564,953,55,0.0521015783599807,1
565,953,55,0.0497079952285781,1
538,930,56,0.045532849720368,1
538,931,56,0.0483571333474687,1
544,929,56,0.0438297363624197,1
544,930,56,0.0445902422753547,1
545,929,56,0.0482144820559987,1
545,930,56,0.0480109130833207,1
549,920,56,0.0423132121264498,1
549,944,56,0.0456919428924232,1
549,945,56,0.0596666763122816,1
550,919,56,0.0507189140646647,1
550,920,56,0.0460854612727696,1
550,944,56,0.0454687258454122,1
550,945,56,0.0550016590025119,1
550,946,56,0.0541974071981548,1
551,919,56,0.0543661081379837,1
551,920,56,0.0501126677028566,1
551,944,56,0.0416559072643764,1
551,945,56,0.0446630872135739,1
551,946,56,0.0438868774393565,1
552,918,56,0.0483182913645275,1
552,919,56,0.0522736747292761,1
552,920,56,0.047964728754495,1
553,918,56,0.0446175760232332,1
553,919,56,0.0532391337390028,1
553,920,56,0.0458481056142064,1
554,918,56,0.0446411845308213,1
554,919,56,0.0555545138579804,1
554,920,56,0.0458881478922774,1
555,919,56,0.0450303721165775,1
556,950,56,0.0421469793610658,1
557,950,56,0.0428252109902569,1
557,951,56,0.0501445079642069,1
558,950,56,0.0419449648246483,1
558,951,56,0.048942590813897,1
559,951,56,0.0439218806405761,1
561,952,56,0.0489811570533624,1
562,952,56,0.0447430014575692,1
563,952,56,0.0413878305385705,1
564,952,56,0.0425408545859103,1
564,953,56,0.048003100351507,1
544,929,57,0.0469024297174215,1
544,930,57,0.0450749641619989,1
545,929,57,0.0538396165214937,1
545,930,57,0.0510964555436204,1
546,929,57,0.0416472537852983,1
547,923,57,0.0443086595259704,1
548,922,57,0.0427914783717199,1
549,944,57,0.0438151706188168,1
550,920,57,0.0628085623561322,1
550,921,57,0.0442216327223204,1
550,944,57,0.0449348107820154,1
550,945,57,0.0528487782985256,1
551,919,57,0.0846910239205194,1
551,920,57,0.0744732466975448,1
551,921,57,0.0492750455311953,1
551,944,57,0.0423962974204165,1
551,945,57,0.0475279943427387,1
551,946,57,0.0479372787618179,1
552,919,57,0.0774431823539401,1
552,920,57,0.066534294659435,1
552,921,57,0.0436782802032967,1
552,945,57,0.0427057059305479,1
552,946,57,0.0449995591348428,1
552,947,57,0.0423696422177578,1
553,918,57,0.0547851733403508,1
553,919,57,0.0665310668387479,1
553,920,57,0.0547644601392585,1
554,918,57,0.0488880855201846,1
554,919,57,0.0611753445625593,1
554,920,57,0.0498400547265373,1
555,919,57,0.0472374850741679,1
557,950,57,0.0441867809096758,1
558,950,57,0.0441133655609332,1
558,951,57,0.049856631775493,1
559,950,57,0.0418418935354224,1
559,951,57,0.0467714407529566,1
560,951,57,0.0442571495633478,1
560,952,57,0.0525922936121721,1
561,952,57,0.0508387164947887,1
562,952,57,0.0461649348678771,1
563,952,57,0.041842023297058,1
544,929,58,0.0463875409538536,1
544,930,58,0.0425079032405546,1
545,929,58,0.052836894295393,1
545,930,58,0.0477816026461685,1
548,923,58,0.0451358521061654,1
550,921,58,0.0519195822592314,1
550,944,58,0.0431331488685175,1
551,920,58,0.108202767175531,1
551,921,58,0.0635107512273072,1
551,944,58,0.0420548756334206,1
551,945,58,0.0486149805309967,1
552,920,58,0.0932432186352934,1
552,921,58,0.0546816830291764,1
552,945,58,0.0453180509594705,1
552,946,58,0.0491687761583237,1
553,919,58,0.079218932490817,1
553,920,58,0.0658685958415548,1
553,921,58,0.0410014977087988,1
553,946,58,0.0415947922373475,1
554,919,58,0.0597398456545899,1
554,920,58,0.0495420679437115,1
555,919,58,0.044621066070559,1
557,949,58,0.0410921875752888,1
557,950,58,0.0439483439041487,1
558,949,58,0.0422343711193161,1
558,950,58,0.0435652821489427,1
559,949,58,0.0413731863973127,1
559,950,58,0.043215896241558,1
559,951,58,0.0479320558559826,1
560,920,58,0.0422156448932698,1
560,921,58,0.0426514574567394,1
560,950,58,0.0416633036776091,1
560,951,58,0.0485727539320587,1
561,951,58,0.0452318621997175,1
561,952,58,0.0546757085872012,1
562,951,58,0.0415317307857837,1
562,952,58,0.0502154226980956,1
563,952,58,0.0453806933890859,1
572,952,58,0.0444971680388095,1
545,929,59,0.0450928793778224,1
551,921,59,0.0746836605965039,1
552,921,59,0.0650099522849164,1
552,945,59,0.0465462286207973,1
553,920,59,0.0704379463854334,1
553,921,59,0.0461558569601157,1
553,946,59,0.0433029527822495,1
554,920,59,0.0460206453357569,1
556,948,59,0.0425936837918288,1
556,949,59,0.0420865726162982,1
557,948,59,0.0438743500347804,1
557,949,59,0.0437701027807313,1
558,948,59,0.0448569916477626,1
558,949,59,0.0456832921167125,1
558,950,59,0.0456409249426691,1
559,920,59,0.0440307587629979,1
559,921,59,0.0452230843657385,1
559,948,59,0.0438332588501545,1
559,949,59,0.0460467544581989,1
559,950,59,0.0463442167877472,1
560,920,59,0.0512956775015037,1
560,921,59,0.0549378162777667,1
560,949,59,0.042743609844998,1
560,950,59,0.0464459445033706,1
560,951,59,0.0545252986312656,1
561,920,59,0.0416267000828831,1
561,921,59,0.0443701611345389,1
561,950,59,0.045157068133596,1
561,951,59,0.05745488923244,1
562,950,59,0.0416874988159251,1
562,951,59,0.0558032020327247,1
563,951,59,0.0482135196572009,1
563,952,59,0.0564434351296064,1
549,937,60,0.041145008671105,1
550,937,60,0.0440097590049601,1
555,944,60,0.041458064023872,1
555,945,60,0.0410105188458446,1
556,945,60,0.0413875737186666,1
556,946,60,0.0443969325819962,1
556,947,60,0.0470839986861202,1
556,948,60,0.0453284562206301,1
557,945,60,0.0430685546076324,1
557,946,60,0.0522869050093787,1
557,947,60,0.0577770008660292,1
557,948,60,0.0533934689844171,1
557,949,60,0.047784516876236,1
558,943,60,0.0448324396649485,1
558,944,60,0.0422286724208166,1
558,945,60,0.044451262156827,1
558,946,60,0.0550131645342072,1
558,947,60,0.061613111660666,1
558,948,60,0.0577030151067631,1
558,949,60,0.0526944592733158,1
559,920,60,0.0413908907504782,1
559,921,60,0.0439875886888339,1
559,942,60,0.043342562521535,1
559,943,60,0.0480842770680826,1
559,944,60,0.0436613976738237,1
559,945,60,0.0433461282631483,1
559,946,60,0.0507127990475842,1
559,947,60,0.0557417815251785,1
559,948,60,0.0549102743705977,1
559,949,60,0.0545975542353895,1
559,950,60,0.057358952129808,1
560,920,60,0.0523423510749497,1
560,921,60,0.0561053033407479,1
560,922,60,0.0413688664161921,1
560,945,60,0.0413203301577201,1
560,946,60,0.0476643630083488,1
560,947,60,0.0497602891677495,1
560,948,60,0.0480843581691048,1
560,949,60,0.0502489444539747,1
560,950,60,0.0561252325652915,1
561,920,60,0.051729513903397,1
561,921,60,0.0507863576747995,1
561,938,60,0.0412205488666316,1
561,939,60,0.042154391994503,1
561,946,60,0.0439424640800328,1
561,947,60,0.0448132754933819,1
561,948,60,0.0417268219982652,1
561,949,60,0.0435491727825488,1
561,950,60,0.0543507313841579,1
561,951,60,0.0769745211730763,1
562,920,60,0.0452598123153654,1
562,950,60,0.0504511238958042,1
562,951,60,0.0767630151136837,1
563,950,60,0.0416297197442796,1
563,951,60,0.058308520745901,1
549,937,61,0.0431389178545696,1
550,936,61,0.0413669199916572,1
550,937,61,0.0436844060338469,1
556,945,61,0.0433730646160176,1
556,946,61,0.0488590837946143,1
556,947,61,0.0519972824453182,1
557,934,61,0.0463351875405992,1
557,943,61,0.0435867441828075,1
557,944,61,0.0421340356379086,1
557,945,61,0.0484260151490654,1
557,946,61,0.064109022655257,1
557,947,61,0.0715876236639201,1
557,948,61,0.0593154331914866,1
558,942,61,0.046284861652902,1
558,943,61,0.0532385714385816,1
558,944,61,0.0467512303782024,1
558,945,61,0.0508724491133258,1
558,946,61,0.0691160213490764,1
558,947,61,0.0780409779892258,1
558,948,61,0.0654051629732612,1
559,942,61,0.0506945837579783,1
559,943,61,0.0582726578738452,1
559,944,61,0.048816776094654,1
559,945,61,0.0503172152945369,1
559,946,61,0.0658441357732327,1
559,947,61,0.0706637100045443,1
559,948,61,0.0610320606831154,1
559,949,61,0.0649825293259134,1
560,921,61,0.047924745950507,1
560,939,61,0.0420421671032281,1
560,943,61,0.0450583546726343,1
560,945,61,0.050839754587874,1
560,946,61,0.0689417785060577,1
560,947,61,0.0678964295826425,1
560,948,61,0.0552422100413533,1
560,949,61,0.0566055506664255,1
561,920,61,0.0613534910681173,1
561,921,61,0.0498346750253922,1
561,938,61,0.0509562048424101,1
561,939,61,0.0500105290753869,1
561,945,61,0.047135173431184,1
561,946,61,0.0645838745474887,1
561,947,61,0.0613282091761027,1
561,948,61,0.0485157939807384,1
561,949,61,0.0481701252035419,1
561,950,61,0.063404979274039,1
562,920,61,0.0609261697816812,1
562,921,61,0.045972076636876,1
562,938,61,0.0459453835870736,1
562,939,61,0.0448642285623181,1
562,946,61,0.0440461814740697,1
562,947,61,0.0425070706033925,1
562,949,61,0.0415890962422155,1
562,950,61,0.058268327079255,1
563,950,61,0.0459351270111215,1
565,950,61,0.0441960859002996,1
566,948,61,0.0454361556748613,1
566,949,61,0.04583573500494,1
566,950,61,0.0468491625659827,1
567,948,61,0.0562404176438799,1
567,949,61,0.0540555831371121,1
567,950,61,0.0458465538813133,1
567,951,61,0.0455020745857771,1
568,948,61,0.0520796216098799,1
568,949,61,0.0502218188653867,1
556,934,62,0.0439976316987606,1
556,945,62,0.0419837419267717,1
557,934,62,0.05450558026938,1
557,935,62,0.0452244063124018,1
557,943,62,0.043929779880147,1
557,944,62,0.0417477893158941,1
557,945,62,0.0495661927944748,1
557,946,62,0.0671329067116784,1
558,934,62,0.0434492428062528,1
558,942,62,0.0454531544491329,1
558,943,62,0.0530192526473753,1
558,944,62,0.0458547234576251,1
558,945,62,0.0516335065132123,1
558,946,62,0.0721147208347099,1
558,947,62,0.0804069543326415,1
559,942,62,0.0482145469368166,1
559,943,62,0.0559475942928064,1
559,944,62,0.04656005364173,1
559,945,62,0.0492752131399747,1
559,946,62,0.0687951857049046,1
559,947,62,0.072358867352206,1
559,948,62,0.0580875096466963,1
560,938,62,0.041501742331109,1
560,943,62,0.0421044878321217,1
560,945,62,0.0514193241200842,1
560,946,62,0.0778986889489887,1
560,947,62,0.0745826087227329,1
560,948,62,0.0549715218626297,1
561,938,62,0.0501426696743684,1
561,939,62,0.0472943585177311,1
561,945,62,0.0472681196336535,1
561,946,62,0.0715842714883322,1
561,947,62,0.0658629458036687,1
561,948,62,0.0482546865361144,1
562,938,62,0.0437095743844303,1
562,939,62,0.0415308738183148,1
562,946,62,0.0451374335761001,1
562,947,62,0.0415972333781184,1
562,949,62,0.0411784925798404,1
566,947,62,0.0410538889691969,1
566,948,62,0.0578967762624791,1
566,949,62,0.0548974604090762,1
567,947,62,0.0469862395138541,1
567,948,62,0.0728625695814331,1
567,949,62,0.0646272690011477,1
567,950,62,0.0487797291476728,1
568,948,62,0.0607858866400621,1
568,949,62,0.0551445427835791,1
583,942,62,0.0410772487669833,1
587,926,62,0.0477858144925926,1
587,927,62,0.0491236948034012,1
588,926,62,0.0411591013254113,1
588,927,62,0.0410953856589343,1
589,924,62,0.0438328749719823,1
556,934,63,0.0414478696253704,1
557,934,63,0.0499635715834821,1
557,935,63,0.0442784466918006,1
558,946,63,0.065770739348062,1
561,938,63,0.0427166897123332,1
567,947,63,0.0499269139214079,1
582,942,63,0.0490034328008175,1
583,941,63,0.0456636386356446,1
583,942,63,0.058335257049582,1
583,943,63,0.0415626059449688,1
584,942,63,0.0418179498102755,1
586,926,63,0.0476902396411935,1
586,927,63,0.0486543902210939,1
587,926,63,0.0614093318253301,1
587,927,63,0.0618857192302505,1
588,926,63,0.0495938752767491,1
588,927,63,0.0479392630334966,1
589,924,63,0.046403496228305,1
578,921,64,0.0469672997217824,1
578,922,64,0.0452798334544009,1
579,921,64,0.0421395586175265,1
582,941,64,0.0464628189227414,1
582,942,64,0.0568706536880809,1
583,941,64,0.0542461867596937,1
583,942,64,0.0670117525978496,1
583,943,64,0.0450037872014715,1
584,942,64,0.045143656727877,1
586,926,64,0.0504512212170309,1
586,927,64,0.0504318056322951,1
587,925,64,0.0424702047820277,1
587,926,64,0.063843130250318,1
587,927,64,0.0628602074871253,1
588,926,64,0.0502573735535579,1
588,927,64,0.047435366161816,1
578,921,65,0.0540415418467866,1
578,922,65,0.0541340618930129,1
579,921,65,0.0530539692916494,1
579,922,65,0.0544180560461266,1
582,941,65,0.0511587843826162,1
582,942,65,0.0559017559950092,1
583,941,65,0.0554791656015399,1
583,942,65,0.0624072961247899,1
583,943,65,0.042484178488168,1
584,942,65,0.0426285058674319,1
586,926,65,0.0473175588168403,1
586,927,65,0.0455069136134403,1
587,926,65,0.0564041822348189,1
587,927,65,0.0542058308910031,1
588,926,65,0.0447516981905259,1
588,927,65,0.0421818095467712,1
579,922,66,0.0586731293151691,1
587,926,66,0.0441613935863322,1
