x,y,z,signal,cytoplasm.p
508,936,5,0.0624484521902337,1
509,935,5,0.0671050566206246,1
509,936,5,0.056860391705394,1
509,937,5,0.0422763192714109,1
510,934,5,0.0464788390780107,1
510,935,5,0.0500617524810641,1
510,936,5,0.0457026536341,1
510,937,5,0.0422001654114824,1
511,925,5,0.0465373075083456,1
511,926,5,0.064105643445995,1
511,934,5,0.0437802268916803,1
511,935,5,0.041330156898254,1
511,936,5,0.0417776047550546,1
511,937,5,0.043329210589899,1
512,920,5,0.0499584081517298,1
512,921,5,0.0466904965259782,1
512,922,5,0.0415184112945566,1
512,925,5,0.0429175039536208,1
512,933,5,0.0438595139544365,1
512,934,5,0.0431155418365787,1
512,936,5,0.0438207692927221,1
513,919,5,0.0515547520138357,1
513,920,5,0.0488431609605718,1
513,921,5,0.0445978441445105,1
513,932,5,0.0429556917216488,1
513,934,5,0.0458760205860779,1
513,935,5,0.0419512447471409,1
514,920,5,0.0485346472650529,1
514,921,5,0.0431199726557631,1
514,935,5,0.0454440170672884,1
515,934,5,0.0495616727641659,1
516,931,5,0.041301103808703,1
517,929,5,0.0415996718155219,1
506,925,6,0.0436981607672269,1
506,926,6,0.0441819635089519,1
507,925,6,0.0634283796223366,1
507,926,6,0.0647614371256863,1
507,927,6,0.0412916230991975,1
508,924,6,0.0413316734873708,1
508,925,6,0.0675597413919807,1
508,926,6,0.0703691186511849,1
508,927,6,0.0465620108797346,1
508,935,6,0.054172698420031,1
508,936,6,0.0551300365140592,1
508,937,6,0.0472935637277127,1
509,917,6,0.0448529717404245,1
509,918,6,0.0503200105764384,1
509,919,6,0.0473499343449377,1
509,920,6,0.0420936716591158,1
509,925,6,0.058409275249257,1
509,926,6,0.0674328236988347,1
509,927,6,0.0538939109525482,1
509,934,6,0.0415497189925272,1
509,935,6,0.0550441397179864,1
509,936,6,0.0545065318547081,1
509,937,6,0.0484300107260968,1
510,917,6,0.0602743933059606,1
510,918,6,0.0719351685780988,1
510,919,6,0.061895364845168,1
510,920,6,0.049061555200124,1
510,921,6,0.0450260629489266,1
510,922,6,0.0427428069448773,1
510,925,6,0.0529825625448921,1
510,926,6,0.0708676087880462,1
510,927,6,0.0640186977433673,1
510,934,6,0.0455364614192272,1
510,935,6,0.0485186271097836,1
510,936,6,0.0479504117206938,1
510,937,6,0.0458467647439712,1
511,917,6,0.0703225071903085,1
511,918,6,0.0823538168130767,1
511,919,6,0.0668718533344026,1
511,920,6,0.0507160701221498,1
511,921,6,0.0473688254763961,1
511,922,6,0.0437004180790139,1
511,925,6,0.0507491160853648,1
511,926,6,0.070285708953129,1
511,927,6,0.0617195648625214,1
511,933,6,0.0454705425083115,1
511,934,6,0.0481727799103382,1
511,935,6,0.0453663168812016,1
511,936,6,0.0469650234864235,1
511,938,6,0.0427785481653997,1
512,918,6,0.0708808985422318,1
512,919,6,0.0599352288307516,1
512,920,6,0.0521953311417458,1
512,921,6,0.0501884430913478,1
512,922,6,0.0448062197044428,1
512,923,6,0.0423808665992425,1
512,925,6,0.0454791229964695,1
512,926,6,0.057157924322495,1
512,927,6,0.0473763894984081,1
512,933,6,0.0473990653442399,1
512,934,6,0.047260717813686,1
512,935,6,0.0443231576853881,1
513,918,6,0.0587656818018043,1
513,919,6,0.053812782896586,1
513,920,6,0.0509373137109518,1
513,921,6,0.0473442194262338,1
513,932,6,0.0495341416704665,1
513,934,6,0.0508023075425162,1
513,935,6,0.0449133757818247,1
514,919,6,0.0544644458308754,1
514,920,6,0.0505444225118444,1
514,921,6,0.0454776415511291,1
514,931,6,0.0462363794617781,1
514,935,6,0.0468828248969671,1
515,920,6,0.0462613693901125,1
515,921,6,0.0426391949821695,1
515,935,6,0.0470865506649549,1
516,921,6,0.0413413488393298,1
516,930,6,0.0453431355056642,1
506,925,7,0.0506059349338826,1
506,926,7,0.0537799045421503,1
507,924,7,0.0441367064351477,1
507,925,7,0.0789154849058238,1
507,926,7,0.0839434887644158,1
507,927,7,0.0481382362815782,1
508,924,7,0.0469641854425265,1
508,925,7,0.0781488856027476,1
508,926,7,0.081727311415901,1
508,927,7,0.0484098652321604,1
508,936,7,0.0504531946752399,1
508,937,7,0.0538038834110735,1
509,916,7,0.0449434183038476,1
509,917,7,0.051281014436674,1
509,918,7,0.0523644375866862,1
509,919,7,0.0500364381486406,1
509,920,7,0.04664393913245,1
509,921,7,0.041272242658238,1
509,924,7,0.0441014653375961,1
509,925,7,0.0632120831958941,1
509,926,7,0.0689071375560711,1
509,927,7,0.0502126220094593,1
509,935,7,0.0483966836126712,1
509,936,7,0.0538464776679793,1
509,937,7,0.052363307579109,1
510,916,7,0.0533532320638926,1
510,917,7,0.0704373408311337,1
510,918,7,0.0760468876801448,1
510,919,7,0.0661429119393421,1
510,920,7,0.0548379052250426,1
510,921,7,0.0492997813429931,1
510,922,7,0.0445757603361415,1
510,925,7,0.056729197285006,1
510,926,7,0.0699043665395954,1
510,927,7,0.0590462534917775,1
510,934,7,0.0472916443368519,1
510,935,7,0.0532149764478306,1
510,936,7,0.053300256876134,1
510,937,7,0.048550764741549,1
511,916,7,0.0570880530884264,1
511,917,7,0.0833326304578068,1
511,918,7,0.0910536207951499,1
511,919,7,0.0738014761164626,1
511,920,7,0.0559155053216544,1
511,921,7,0.0501312236167561,1
511,922,7,0.0436402194935369,1
511,925,7,0.0515815477915997,1
511,926,7,0.0662452398025305,1
511,927,7,0.0549391463345322,1
511,933,7,0.0490737311669369,1
511,934,7,0.0563136464602713,1
511,935,7,0.0565893791225812,1
511,938,7,0.0449181796657115,1
512,916,7,0.0527923428004827,1
512,917,7,0.0747552079183664,1
512,918,7,0.0804253588579661,1
512,919,7,0.0674952066051787,1
512,920,7,0.0563825661090117,1
512,921,7,0.052504401730951,1
512,922,7,0.0456732085562746,1
512,923,7,0.0459007780248151,1
512,925,7,0.0444009524893342,1
512,926,7,0.0523556786762791,1
512,927,7,0.0419820036615273,1
512,933,7,0.051811874694898,1
512,934,7,0.0560872448464518,1
512,939,7,0.0413600453283346,1
513,917,7,0.0613791514315693,1
513,918,7,0.0637392344340321,1
513,919,7,0.0589023856849732,1
513,920,7,0.0531324858946939,1
513,921,7,0.0486203980792856,1
513,922,7,0.0411634104930622,1
513,923,7,0.0433198136847832,1
513,932,7,0.0546233281402727,1
513,933,7,0.0618279320485028,1
513,934,7,0.0567928237403584,1
513,935,7,0.0518844276694369,1
514,917,7,0.0588536223436387,1
514,918,7,0.0591757880445761,1
514,919,7,0.056221694121201,1
514,920,7,0.0516549496235053,1
514,921,7,0.0463864920472986,1
514,931,7,0.0577388347249404,1
514,934,7,0.0622112641404498,1
514,935,7,0.0502091725126446,1
515,919,7,0.052065385677101,1
515,920,7,0.0479628418040432,1
515,921,7,0.0445699048423323,1
515,930,7,0.0471545619822457,1
515,935,7,0.0505310895037803,1
516,920,7,0.0446237856581731,1
516,921,7,0.041682027200288,1
516,935,7,0.0483716125833145,1
506,925,8,0.049399340957954,1
506,926,8,0.0523550298681008,1
507,924,8,0.0479819383914246,1
507,925,8,0.0821879868494368,1
507,926,8,0.0862321542066516,1
507,927,8,0.0462327515427145,1
508,917,8,0.0442324299717544,1
508,918,8,0.0470012864568559,1
508,919,8,0.048958021635071,1
508,920,8,0.044685527866441,1
508,924,8,0.0500592545695776,1
508,925,8,0.077813089523331,1
508,926,8,0.0792217061457792,1
508,927,8,0.0432666573714082,1
508,936,8,0.043321343790737,1
508,937,8,0.0503020872505127,1
509,916,8,0.0495928047432549,1
509,917,8,0.0536516676057084,1
509,918,8,0.0575104920933208,1
509,919,8,0.0610138724271836,1
509,920,8,0.0551971449066352,1
509,921,8,0.0421482445370135,1
509,924,8,0.0458193255647637,1
509,925,8,0.0605745968500622,1
509,926,8,0.0626442462782417,1
509,927,8,0.0419369493402789,1
509,935,8,0.0423093409043192,1
509,936,8,0.0473665492410372,1
509,937,8,0.0473559628542612,1
510,915,8,0.0465337552835694,1
510,916,8,0.0597982762377811,1
510,917,8,0.0697207105712566,1
510,918,8,0.0736333104433808,1
510,919,8,0.0727857939470003,1
510,920,8,0.0632645231169056,1
510,921,8,0.0504693499988797,1
510,924,8,0.0422569199068796,1
510,925,8,0.0539152026742662,1
510,926,8,0.0610224258816676,1
510,927,8,0.0473623536148175,1
510,934,8,0.0471351085503662,1
510,935,8,0.0552720876579642,1
510,936,8,0.051739532583017,1
510,937,8,0.0443255123184018,1
511,915,8,0.0471896084373438,1
511,916,8,0.0649747814749175,1
511,917,8,0.0835889961959944,1
511,918,8,0.0870475060375926,1
511,919,8,0.0790664247217716,1
511,920,8,0.0650405435905235,1
511,921,8,0.0521632908312072,1
511,925,8,0.0479855663104883,1
511,926,8,0.0551859151184157,1
511,927,8,0.0426457939020163,1
511,933,8,0.0474199299339072,1
511,934,8,0.0604492849571575,1
511,935,8,0.0645824417627616,1
511,936,8,0.057479143844839,1
512,917,8,0.0864499104514952,1
512,918,8,0.0903438246480843,1
512,919,8,0.0796243510945005,1
512,920,8,0.0647714017379581,1
512,921,8,0.0531904082448121,1
512,922,8,0.0438672401784932,1
512,923,8,0.0447520631451262,1
512,925,8,0.0412512077564239,1
512,926,8,0.0431804550948181,1
512,933,8,0.0520612333047598,1
512,934,8,0.0634120404697129,1
512,935,8,0.0645731367721378,1
513,918,8,0.0814623111222072,1
513,919,8,0.0723705242724763,1
513,920,8,0.0580455371642948,1
513,921,8,0.0476883256570675,1
513,922,8,0.0410417995101412,1
513,923,8,0.0424362018267497,1
513,932,8,0.0521579976378192,1
513,933,8,0.0604686843216888,1
513,934,8,0.0605506342013435,1
513,935,8,0.0574630317750778,1
514,918,8,0.0689125875447689,1
514,919,8,0.0632571483306122,1
514,920,8,0.0525048829303499,1
514,921,8,0.0442734076149491,1
514,930,8,0.0418978099869226,1
514,931,8,0.0635927551743101,1
514,934,8,0.061747090549486,1
514,935,8,0.0526523678427483,1
515,919,8,0.0542871265557447,1
515,920,8,0.0479891996362868,1
515,921,8,0.0428044464251837,1
515,935,8,0.0526124769532522,1
516,920,8,0.0442372068219671,1
501,925,9,0.0423617754185959,1
506,925,9,0.0412537462184215,1
506,926,9,0.0415409573787527,1
507,924,9,0.0445162267790472,1
507,925,9,0.0694136350671997,1
507,926,9,0.0692648255047706,1
508,916,9,0.041655231422524,1
508,917,9,0.0473585472735047,1
508,918,9,0.0559236857114359,1
508,919,9,0.0597042747462144,1
508,920,9,0.0477631602737002,1
508,924,9,0.0462032091436623,1
508,925,9,0.0657148066763573,1
508,926,9,0.0637415160761258,1
508,937,9,0.0431513344210819,1
509,915,9,0.0433159019121415,1
509,916,9,0.0496462989775562,1
509,917,9,0.0544259769126368,1
509,918,9,0.0653902295716906,1
509,919,9,0.071929480693069,1
509,920,9,0.0597562064341528,1
509,924,9,0.04128287500226,1
509,925,9,0.0506220307834393,1
509,926,9,0.0498883693088817,1
509,936,9,0.0419705521971802,1
509,937,9,0.0415464830617379,1
510,915,9,0.0529859093137452,1
510,916,9,0.0602116643685881,1
510,917,9,0.0637184022847737,1
510,918,9,0.0700387401200572,1
510,919,9,0.0735663209989708,1
510,920,9,0.0647782088170955,1
510,921,9,0.0448980017313663,1
510,925,9,0.0449231673785823,1
510,926,9,0.0466246424958803,1
510,934,9,0.0460482629372134,1
510,935,9,0.0544077345893568,1
510,936,9,0.0477386515447647,1
511,917,9,0.0731104467459545,1
511,918,9,0.0752554714642485,1
511,919,9,0.0738579386481796,1
511,920,9,0.0665580410387609,1
511,921,9,0.0479416582170215,1
511,926,9,0.0412700204902273,1
511,933,9,0.0457523955944368,1
511,934,9,0.0634970235276012,1
511,935,9,0.0703352184238685,1
511,936,9,0.0568831973128614,1
511,937,9,0.0471975022701798,1
512,918,9,0.0887266378232503,1
512,919,9,0.0795509654827994,1
512,920,9,0.0657103785605403,1
512,921,9,0.0485578475641622,1
512,933,9,0.0528674315336519,1
512,934,9,0.0701897231898836,1
512,935,9,0.0727347705905115,1
512,936,9,0.059868169098789,1
513,919,9,0.080705070877103,1
513,920,9,0.0585347169037974,1
513,921,9,0.0437721519332278,1
513,932,9,0.0484532056184712,1
513,933,9,0.059541359012642,1
513,934,9,0.065428076715425,1
513,935,9,0.062833509030588,1
514,918,9,0.0814779852464481,1
514,919,9,0.0695018080986313,1
514,920,9,0.0509458563519662,1
514,931,9,0.0591913810677947,1
514,932,9,0.0703629063128776,1
514,933,9,0.0702910454003955,1
514,934,9,0.0604808873221757,1
514,935,9,0.0541816898200353,1
515,919,9,0.0556601614563477,1
515,920,9,0.0465739381367458,1
515,934,9,0.0620479320882964,1
515,935,9,0.0523333813018846,1
516,920,9,0.0437722708813938,1
499,941,10,0.0720233632364697,1
500,941,10,0.0448806704429033,1
500,942,10,0.0447745984158526,1
507,925,10,0.0508028590294677,1
507,926,10,0.0475451985729334,1
508,914,10,0.0417841117604095,1
508,916,10,0.0412928531313689,1
508,917,10,0.046955648208247,1
508,918,10,0.0578625191906646,1
508,919,10,0.0618174483896884,1
508,920,10,0.0447659827839182,1
508,925,10,0.0506890256345841,1
508,926,10,0.0467795076013069,1
509,915,10,0.0434017392341313,1
509,916,10,0.0475662632117891,1
509,917,10,0.0527955976548439,1
509,918,10,0.0660844002551287,1
509,919,10,0.0723605272197955,1
509,920,10,0.0549997450183859,1
510,917,10,0.0558520032212028,1
510,918,10,0.0614896002104561,1
510,919,10,0.0654375330946238,1
510,920,10,0.056516566624771,1
510,934,10,0.0423178348847202,1
510,935,10,0.0476473588273424,1
511,918,10,0.0593510311335362,1
511,919,10,0.0611649528182367,1
511,920,10,0.0589730679292647,1
511,921,10,0.0415926457636243,1
511,933,10,0.0438928410678621,1
511,934,10,0.0635325782157723,1
511,935,10,0.0696239786786061,1
511,936,10,0.0520156923773776,1
511,937,10,0.0411310187447603,1
512,919,10,0.0681231231601422,1
512,920,10,0.0595278800227377,1
512,921,10,0.0433644030268372,1
512,933,10,0.0514585283542583,1
512,934,10,0.0721984062762416,1
512,935,10,0.0753630168265373,1
512,936,10,0.0559076763696362,1
512,937,10,0.0468857066866257,1
513,919,10,0.0779109135764149,1
513,920,10,0.0552723471812356,1
513,932,10,0.042849954912157,1
513,933,10,0.0535921502688185,1
513,934,10,0.0631232126956708,1
513,935,10,0.0615008570323497,1
513,936,10,0.0507400543978078,1
514,919,10,0.0698761109434302,1
514,920,10,0.0487770528139373,1
514,931,10,0.0513956966889242,1
514,932,10,0.0577168617546351,1
514,933,10,0.0576996953715841,1
514,934,10,0.053953157952697,1
514,935,10,0.0501715848921815,1
515,919,10,0.0551444670892917,1
515,920,10,0.0449985129316553,1
515,934,10,0.0560125886520681,1
515,935,10,0.0488627549675566,1
516,920,10,0.0427902888900596,1
498,941,11,0.0720137608754308,1
499,941,11,0.0660174540645972,1
499,942,11,0.0605355656314024,1
500,941,11,0.04428227736342,1
500,942,11,0.0462272853338122,1
505,914,11,0.0501217023567395,1
506,914,11,0.0540266354788901,1
507,914,11,0.0541063469703297,1
508,914,11,0.0474582366501013,1
508,917,11,0.0446169380285245,1
508,918,11,0.0536089706208411,1
508,919,11,0.0563598416025666,1
509,913,11,0.0508490595784979,1
509,914,11,0.0420234084367728,1
509,915,11,0.0430412235631213,1
509,916,11,0.0453735781260638,1
509,917,11,0.0490110671103823,1
509,918,11,0.0597168616248735,1
509,919,11,0.0633610928075115,1
509,920,11,0.0465316520637247,1
510,917,11,0.0500351783794277,1
510,918,11,0.0535694311691082,1
510,919,11,0.0551343943423235,1
510,920,11,0.0465731866006059,1
511,918,11,0.0502272904810238,1
511,919,11,0.0512867401688476,1
511,920,11,0.0494241578707742,1
511,934,11,0.0554034550938665,1
511,935,11,0.060354137237809,1
511,936,11,0.0454597398521427,1
512,919,11,0.0579451611323762,1
512,920,11,0.0518111934463107,1
512,933,11,0.046123519279162,1
512,934,11,0.0655005918428203,1
512,935,11,0.0697107783993937,1
512,936,11,0.0514386856374718,1
512,937,11,0.0418144597629497,1
513,919,11,0.0713789182931639,1
513,920,11,0.0522285555272098,1
513,933,11,0.0457075088819677,1
513,934,11,0.0553423319567354,1
513,935,11,0.055677646836753,1
513,936,11,0.045902454112609,1
514,919,11,0.0689928829635689,1
514,920,11,0.0489997183739967,1
514,931,11,0.0427925380917444,1
514,932,11,0.0460036357480157,1
514,933,11,0.0469556968688604,1
514,934,11,0.0464703775380186,1
514,935,11,0.0446250778677949,1
515,919,11,0.0558660066643846,1
515,920,11,0.0449535964821448,1
515,930,11,0.0507306520859572,1
515,933,11,0.0592099802355727,1
515,934,11,0.0474531489126364,1
515,935,11,0.0432419972538978,1
516,920,11,0.0429030490480816,1
498,941,12,0.0485379778137016,1
498,942,12,0.04798357122534,1
499,941,12,0.0516891255942975,1
499,942,12,0.0531973450855852,1
504,914,12,0.046503234265515,1
505,913,12,0.0858462160685218,1
505,914,12,0.0550084606749145,1
506,913,12,0.104174230688679,1
506,914,12,0.0610934920041313,1
507,913,12,0.100715704626876,1
507,914,12,0.0594447676950968,1
508,913,12,0.0773185787432966,1
508,914,12,0.0498110638144367,1
508,918,12,0.0457667072215032,1
508,919,12,0.0470439131541706,1
509,913,12,0.0547329496887321,1
509,914,12,0.0433871653804261,1
509,915,12,0.0426681534538611,1
509,916,12,0.0427277356715688,1
509,917,12,0.0435326498009413,1
509,918,12,0.049633863487472,1
509,919,12,0.0512905302899558,1
510,917,12,0.0444827320568422,1
510,918,12,0.0450567245420863,1
510,919,12,0.0450514529756376,1
511,918,12,0.0438103667349299,1
511,919,12,0.0431685846085226,1
511,920,12,0.0412685120112128,1
511,934,12,0.0439741151056645,1
511,935,12,0.0474114035130973,1
512,919,12,0.0492282178009261,1
512,920,12,0.044256530492211,1
512,934,12,0.0536772684950773,1
512,935,12,0.0572732013155754,1
512,936,12,0.0443559197950251,1
513,919,12,0.0620819134166351,1
513,920,12,0.0477930487037807,1
513,934,12,0.0457328989086787,1
513,935,12,0.046739459916501,1
514,919,12,0.0644375953369551,1
514,920,12,0.0473917824724384,1
515,919,12,0.0543630208924019,1
515,920,12,0.0431569871623354,1
515,930,12,0.0453630836537797,1
515,931,12,0.0566427327817772,1
515,932,12,0.0586903119184246,1
515,933,12,0.0506351367086411,1
516,920,12,0.041453741339384,1
516,929,12,0.0517036805244308,1
503,913,13,0.0473313622108338,1
503,914,13,0.0412508022513125,1
504,913,13,0.070754451235015,1
504,914,13,0.0503535918064005,1
505,913,13,0.100143077342174,1
505,914,13,0.0592043734515652,1
506,914,13,0.0648941021779453,1
507,913,13,0.105883483394014,1
507,914,13,0.0594186315389808,1
508,912,13,0.114353468705862,1
508,913,13,0.0778161767689128,1
508,914,13,0.0494080349875433,1
509,912,13,0.0721985901052254,1
509,913,13,0.0534737427762779,1
509,914,13,0.0434939294695336,1
509,915,13,0.041359896643127,1
512,919,13,0.0423959486860207,1
513,919,13,0.0513083833283289,1
513,920,13,0.0417304336971244,1
514,919,13,0.0548591645063517,1
514,920,13,0.0424599887565868,1
515,919,13,0.0502239707458448,1
515,931,13,0.0471284474530689,1
515,932,13,0.049229477570139,1
515,933,13,0.0431522643794708,1
515,936,13,0.042225236440839,1
516,929,13,0.045254021702374,1
516,934,13,0.052109704682414,1
516,936,13,0.0455767470003651,1
517,928,13,0.0454321330641558,1
503,913,14,0.0479331642366205,1
503,914,14,0.0411602962138063,1
504,912,14,0.103528352960646,1
504,913,14,0.0728297885482242,1
504,914,14,0.0471313995302802,1
505,913,14,0.101446338329935,1
505,914,14,0.0551576595222505,1
506,914,14,0.0590029293256712,1
507,913,14,0.0967058105616802,1
507,914,14,0.0531943119073516,1
508,912,14,0.105589508408424,1
508,913,14,0.069916012646396,1
508,914,14,0.045962625664412,1
509,911,14,0.072644288883312,1
509,912,14,0.0643124510528297,1
509,913,14,0.0480662185737864,1
509,914,14,0.0412492721453586,1
513,918,14,0.0448351592525626,1
513,919,14,0.0417825356972097,1
514,919,14,0.0445435226797819,1
515,919,14,0.0435573531723303,1
515,937,14,0.0487947166165917,1
516,919,14,0.0426998152929624,1
516,930,14,0.0566647760396351,1
516,933,14,0.0643794675309138,1
516,934,14,0.0453864083077898,1
516,936,14,0.0431660650700968,1
516,937,14,0.0507919806790115,1
517,929,14,0.0628883765755333,1
517,937,14,0.0490743367212366,1
518,920,14,0.0431046634861225,1
518,928,14,0.0517490051824202,1
503,912,15,0.0589217958629741,1
503,913,15,0.0488161813538239,1
504,912,15,0.10278538108873,1
504,913,15,0.0720979761769748,1
504,914,15,0.0441170232170384,1
505,913,15,0.0955521322994272,1
505,914,15,0.0508465238198677,1
506,914,15,0.0520177577500786,1
507,913,15,0.0802224170665271,1
507,914,15,0.0461809117692679,1
508,912,15,0.0871894706737406,1
508,913,15,0.0585151445237519,1
508,914,15,0.0414452608758201,1
509,911,15,0.0645399232001434,1
509,912,15,0.053805992037653,1
509,913,15,0.0429983076054938,1
514,938,15,0.0435671096253115,1
515,937,15,0.0421801577892839,1
515,938,15,0.05027958982693,1
516,930,15,0.0464334225055294,1
516,931,15,0.056910814914318,1
516,932,15,0.059565640658715,1
516,933,15,0.0504442140887052,1
516,937,15,0.046190000490499,1
516,938,15,0.0519501411244296,1
517,919,15,0.0414372426880832,1
517,929,15,0.0528968441710684,1
517,934,15,0.0552293744528925,1
517,937,15,0.048228020519986,1
518,919,15,0.0448718844988221,1
518,928,15,0.0468886966109808,1
519,919,15,0.0445997932724128,1
521,931,15,0.0585341383831718,1
522,931,15,0.0447898589248799,1
503,911,16,0.0544826611204813,1
503,912,16,0.0541884320183549,1
503,913,16,0.0463509589860668,1
504,911,16,0.0938174679404415,1
504,912,16,0.0888030998670635,1
504,913,16,0.0634415179879472,1
505,912,16,0.115992769076107,1
505,913,16,0.0794488214485949,1
505,914,16,0.0450465625839936,1
506,913,16,0.078529422412793,1
506,914,16,0.0443899146402008,1
507,912,16,0.09509509019169,1
507,913,16,0.0634597170573487,1
508,911,16,0.0938814404268224,1
508,912,16,0.0691772904680476,1
508,913,16,0.0492751374456872,1
509,910,16,0.0629851949759409,1
509,911,16,0.054764892678044,1
509,912,16,0.045279068401424,1
515,938,16,0.0460164226758631,1
516,931,16,0.0430670677555571,1
516,932,16,0.043813370176122,1
516,937,16,0.0431418537115764,1
516,938,16,0.0494646380943656,1
517,929,16,0.0450435645495364,1
517,930,16,0.0688994059252796,1
517,932,16,0.0833633298981103,1
517,933,16,0.0589630600631143,1
517,934,16,0.0437144458525024,1
517,935,16,0.0410016788344152,1
517,936,16,0.0435421629508557,1
517,937,16,0.0471394231247519,1
518,928,16,0.0416664747275806,1
518,929,16,0.0660255479466216,1
518,937,16,0.0492096348533525,1
519,928,16,0.0483109598321127,1
519,929,16,0.0717270146942941,1
520,930,16,0.074856362520099,1
521,930,16,0.0551448185270549,1
521,931,16,0.0526927885922567,1
522,930,16,0.0469769994040481,1
522,931,16,0.0422421676309254,1
523,930,16,0.0459206045213971,1
503,911,17,0.0476618326564534,1
503,912,17,0.0478737388142226,1
503,913,17,0.0420794924970525,1
504,911,17,0.073126072209582,1
504,912,17,0.0689853297550265,1
504,913,17,0.0511083449534878,1
505,912,17,0.0856449449581419,1
505,913,17,0.0594613501507873,1
506,913,17,0.057041052342643,1
507,912,17,0.0698007302465808,1
507,913,17,0.0484751407416327,1
508,911,17,0.074054646474372,1
508,912,17,0.0535019659320341,1
509,909,17,0.0502174177832439,1
509,910,17,0.05271422088908,1
509,911,17,0.0458179955079982,1
513,939,17,0.0425976766654928,1
514,939,17,0.0492183721368203,1
515,938,17,0.0453043719203779,1
516,937,17,0.0411180696148683,1
516,938,17,0.0494484827707258,1
517,930,17,0.057754038463252,1
517,931,17,0.0702546418548578,1
517,932,17,0.0644266737326203,1
517,933,17,0.045111686704891,1
517,937,17,0.045212633147333,1
518,929,17,0.05733810916708,1
518,930,17,0.0886599349357857,1
518,932,17,0.0926096682626483,1
518,933,17,0.0585257741644064,1
518,934,17,0.0432716802280552,1
518,936,17,0.0437239752226212,1
518,937,17,0.0475917721866661,1
519,918,17,0.0411515832606452,1
519,928,17,0.0422026849499081,1
519,929,17,0.0653687702411931,1
519,930,17,0.0904142149286955,1
520,918,17,0.0413210708803903,1
520,928,17,0.0435621381326453,1
520,929,17,0.0585381609938772,1
520,930,17,0.0702324093612812,1
520,931,17,0.0701687288385806,1
520,932,17,0.0618098248935933,1
521,929,17,0.0468099853654827,1
521,930,17,0.0489258191224878,1
521,931,17,0.0465598427790721,1
521,932,17,0.0439726039232825,1
522,929,17,0.041810488516225,1
523,930,17,0.0425884500725238,1
503,911,18,0.0421957427024003,1
504,913,18,0.0415543417507976,1
505,913,18,0.0441457519025002,1
506,913,18,0.0422557790858327,1
508,912,18,0.0432469903735033,1
509,910,18,0.0423873384608211,1
512,940,18,0.0433797527469889,1
513,940,18,0.0495321087381745,1
514,939,18,0.0481148845938941,1
515,938,18,0.0428428747929112,1
515,939,18,0.0543564300826573,1
516,938,18,0.0474598694840167,1
517,930,18,0.0450782271264623,1
517,931,18,0.0534425621365755,1
517,932,18,0.0477141374090944,1
517,937,18,0.0417513902012837,1
517,938,18,0.0509104854927789,1
518,929,18,0.0472793223881989,1
518,930,18,0.0688371041199579,1
518,931,18,0.0799307669769094,1
518,932,18,0.0661366455336867,1
518,933,18,0.0439559511800393,1
518,937,18,0.0446668178605992,1
519,917,18,0.0434508350896571,1
519,929,18,0.0564137467487141,1
519,930,18,0.0750566279778025,1
519,931,18,0.0784690940656803,1
519,932,18,0.0621761473977991,1
519,933,18,0.0454401079980141,1
519,934,18,0.042594543462665,1
519,936,18,0.0419403420663779,1
520,917,18,0.0431414725367716,1
520,929,18,0.0531395633105723,1
520,930,18,0.0621779478404939,1
520,931,18,0.058319766754325,1
520,932,18,0.0470686759996425,1
520,933,18,0.0418672997823378,1
520,935,18,0.043414099029928,1
521,929,18,0.0428249920174967,1
521,930,18,0.0446076195210636,1
521,931,18,0.0410106999714611,1
521,934,18,0.0412257798825692,1
523,928,18,0.0414488455410052,1
523,929,18,0.041754909985651,1
524,930,18,0.0428792296778356,1
513,940,19,0.0478730034982872,1
514,939,19,0.0456634061460474,1
515,939,19,0.0513579793068255,1
516,938,19,0.0432072319490103,1
516,939,19,0.0561546776431169,1
517,938,19,0.0465011905197533,1
518,930,19,0.0488419822923812,1
518,931,19,0.0543870376084688,1
518,932,19,0.045619427765028,1
519,916,19,0.0443520756065686,1
519,929,19,0.0441634941028095,1
519,930,19,0.055754206201793,1
519,931,19,0.0560394222769759,1
519,932,19,0.0449983561363456,1
519,937,19,0.0446223555768134,1
520,916,19,0.0449875399633397,1
520,929,19,0.0439621337813051,1
520,930,19,0.0500789783381981,1
520,931,19,0.0456872336263957,1
524,929,19,0.0425228825993712,1
525,930,19,0.0434449850025827,1
526,922,19,0.042662087097394,1
527,922,19,0.0486331633801937,1
512,941,20,0.0471196020349047,1
513,940,20,0.0452348413106029,1
514,939,20,0.0411933043298776,1
515,939,20,0.0462025170816055,1
516,939,20,0.0510034164508514,1
517,938,20,0.0419889864595463,1
518,938,20,0.0467125181568969,1
519,937,20,0.0428091313609046,1
521,936,20,0.041094947713414,1
522,936,20,0.0421873217129193,1
523,936,20,0.0434578151843087,1
525,922,20,0.0437835655504311,1
525,923,20,0.0442969215046779,1
525,924,20,0.0427260271433659,1
525,929,20,0.0444864356701933,1
525,930,20,0.0428797730546849,1
526,922,20,0.046865453057993,1
526,923,20,0.0501180311837972,1
527,922,20,0.048197456248053,1
528,922,20,0.0447462157614192,1
512,941,21,0.0469727659306846,1
513,940,21,0.0436545013835618,1
515,939,21,0.0431193184408499,1
518,938,21,0.0451102863605728,1
519,937,21,0.0418607441163695,1
521,936,21,0.0411537567680425,1
522,936,21,0.0424351366999903,1
523,936,21,0.0440202967311227,1
523,937,21,0.0479193878763012,1
524,922,21,0.0453198622156349,1
524,923,21,0.0449664807312189,1
525,921,21,0.0495928804375424,1
525,922,21,0.0576732294046441,1
525,923,21,0.0550109910268099,1
525,924,21,0.0449810951354352,1
525,929,21,0.0438026540277103,1
525,930,21,0.0425400462790548,1
526,921,21,0.0515166615670344,1
526,922,21,0.0598960191898427,1
526,923,21,0.057246746162105,1
527,921,21,0.0448001614580779,1
527,922,21,0.0515018741473039,1
528,922,21,0.0441538565979942,1
529,922,21,0.0432324138164307,1
512,941,22,0.0455918426039804,1
512,942,22,0.054614974734977,1
513,940,22,0.0412272694380119,1
518,938,22,0.0433741378528792,1
519,938,22,0.050647280235045,1
520,937,22,0.046268982072738,1
522,937,22,0.0474001466912037,1
523,936,22,0.041723521186658,1
523,937,22,0.0460937822376564,1
524,922,22,0.0473556114164979,1
524,923,22,0.0460980265244894,1
525,921,22,0.0544251226485353,1
525,922,22,0.0646218893000026,1
525,923,22,0.0591701163797507,1
525,924,22,0.0428504847721693,1
525,928,22,0.0439471327955492,1
525,929,22,0.0430529940248227,1
526,920,22,0.0426055326511851,1
526,921,22,0.0591065007378679,1
526,922,22,0.0680307112486123,1
526,923,22,0.0601499735243009,1
526,924,22,0.0447179520551518,1
527,921,22,0.0472409724181262,1
527,922,22,0.0515516809884584,1
527,923,22,0.0490543588360796,1
528,922,22,0.0410141602817454,1
530,922,22,0.0439218644203716,1
495,935,23,0.0418003995490524,1
497,926,23,0.0414452906128616,1
497,927,23,0.0462671383761646,1
497,928,23,0.0451540971328128,1
498,927,23,0.0412108194473244,1
498,928,23,0.0426366402999674,1
507,947,23,0.0424433387167111,1
508,946,23,0.0428833793468093,1
511,942,23,0.0467928081689621,1
512,941,23,0.0437172384310365,1
512,942,23,0.0514480609156483,1
518,938,23,0.0441885597254313,1
519,938,23,0.0500379412209203,1
520,937,23,0.0441784518346868,1
521,937,23,0.0459657291301982,1
522,937,23,0.0442391072892561,1
523,937,23,0.0445060458973826,1
524,907,23,0.0469262842314439,1
524,922,23,0.0480907651498656,1
524,923,23,0.0457181060822133,1
524,936,23,0.0422859000055105,1
525,921,23,0.0543803873246412,1
525,922,23,0.0653337778534432,1
525,923,23,0.0583277038410396,1
525,924,23,0.0415952409963375,1
525,934,23,0.0456206334668927,1
526,920,23,0.0455996931829379,1
526,921,23,0.0617961458545007,1
526,922,23,0.0702450016466752,1
526,923,23,0.0595786871098338,1
526,924,23,0.042732244888408,1
527,921,23,0.0484043395491752,1
527,922,23,0.0507705970428015,1
527,923,23,0.0454457904763091,1
527,924,23,0.0417044435228485,1
529,922,23,0.0411979892655985,1
530,922,23,0.0441416427840376,1
531,918,23,0.0419951852810166,1
531,919,23,0.0411498504021356,1
531,921,23,0.0421325082353222,1
491,934,24,0.0424068513667836,1
491,935,24,0.0412382964736756,1
493,935,24,0.0432348089999556,1
493,936,24,0.0429705980895454,1
494,935,24,0.0502960208940456,1
494,936,24,0.0474860543007461,1
495,934,24,0.042408484200699,1
495,935,24,0.053579065970556,1
495,936,24,0.049327777415887,1
496,927,24,0.0437338560305033,1
497,926,24,0.0493198889897858,1
497,927,24,0.0627457306907982,1
497,928,24,0.0579224906932792,1
498,926,24,0.0465422438572356,1
498,927,24,0.0588815589424496,1
498,928,24,0.05500111832903,1
499,927,24,0.0411404832340614,1
505,910,24,0.0418130242748552,1
506,908,24,0.0413896877519809,1
508,946,24,0.0428960959871041,1
508,947,24,0.0439099587902997,1
509,944,24,0.0418189040989711,1
509,945,24,0.045010245546213,1
510,943,24,0.0490950445155942,1
511,942,24,0.047455046676558,1
512,941,24,0.0421525915518082,1
512,942,24,0.051150447197525,1
518,938,24,0.0422319921559956,1
518,939,24,0.0492762512330599,1
519,938,24,0.0458426015581604,1
523,907,24,0.0438639528837231,1
523,937,24,0.0419784757670578,1
524,906,24,0.0442329111711533,1
524,922,24,0.0457138563886454,1
524,923,24,0.0419258141699187,1
525,921,24,0.0489972474961844,1
525,922,24,0.0581781427424706,1
525,923,24,0.0503844912958923,1
526,920,24,0.0434052076545178,1
526,921,24,0.0557152344572162,1
526,922,24,0.062070045633707,1
526,923,24,0.0509751824816255,1
526,928,24,0.0437715571923977,1
526,933,24,0.0438372625372881,1
527,921,24,0.0447552558220369,1
527,922,24,0.0456115555591312,1
530,922,24,0.0432177804886425,1
531,918,24,0.0414688504598363,1
532,918,24,0.0444270102477954,1
532,919,24,0.0416728844117088,1
490,934,25,0.0419077178284788,1
491,933,25,0.04448825503646,1
491,934,25,0.0486824728017449,1
491,935,25,0.0443408268947772,1
492,933,25,0.0416894614606644,1
492,934,25,0.0474114792073848,1
492,935,25,0.0453827479483172,1
492,936,25,0.0420522533670333,1
493,934,25,0.0446735086949379,1
493,935,25,0.050269300810569,1
493,936,25,0.0465220118555421,1
494,934,25,0.047568150162241,1
494,935,25,0.0590329204837133,1
494,936,25,0.0531633583505116,1
494,937,25,0.0420923037552066,1
494,939,25,0.0428688163065738,1
495,934,25,0.0462437380278671,1
495,935,25,0.0576240281177893,1
495,936,25,0.0512708551819487,1
496,927,25,0.0466171001008075,1
496,928,25,0.0419131353767677,1
496,935,25,0.044961649813658,1
496,936,25,0.0419766807310978,1
497,926,25,0.0568304708349045,1
497,927,25,0.0788871590221059,1
497,928,25,0.067074870820129,1
498,917,25,0.0413683581831191,1
498,926,25,0.059847385610144,1
498,927,25,0.0808531451235967,1
498,928,25,0.0670676960830239,1
499,926,25,0.0452971350058224,1
499,927,25,0.0545602207314629,1
499,928,25,0.0468939898043688,1
507,948,25,0.043196564461212,1
508,947,25,0.0424369155157458,1
508,948,25,0.0464320221612112,1
509,945,25,0.042061861134807,1
509,946,25,0.0448025079809894,1
510,943,25,0.0457243022003162,1
510,944,25,0.0510710601101746,1
511,942,25,0.0485664713061988,1
511,943,25,0.0604724203754489,1
512,941,25,0.0414393377978257,1
512,942,25,0.0530069361054571,1
513,941,25,0.0473907281591487,1
513,942,25,0.0544605908289493,1
514,940,25,0.0456347450447708,1
518,939,25,0.0485112793571643,1
519,938,25,0.044381731547052,1
525,922,25,0.0434274752918707,1
526,921,25,0.0422537407468059,1
526,922,25,0.0450646940692098,1
527,928,25,0.0426356292405562,1
530,923,25,0.0418850500927493,1
532,918,25,0.0440774567316314,1
533,919,25,0.0437486056030901,1
490,934,26,0.041589845074988,1
491,933,26,0.0470908165787272,1
491,934,26,0.0490346675078681,1
491,935,26,0.0440823552333776,1
492,933,26,0.0471960748921875,1
492,934,26,0.0508688103807924,1
492,935,26,0.0466930701317522,1
492,936,26,0.0421337977415766,1
493,933,26,0.0443282994902011,1
493,934,26,0.0518233045323058,1
493,935,26,0.0540561670644726,1
493,936,26,0.047679161241549,1
494,933,26,0.042980495117632,1
494,934,26,0.0554313700657381,1
494,935,26,0.0645709146041271,1
494,936,26,0.0566446143254943,1
494,937,26,0.0433574742961664,1
495,934,26,0.0512700171380518,1
495,935,26,0.0612177441770115,1
495,936,26,0.0535215437188145,1
495,937,26,0.0412383397275542,1
495,939,26,0.0413980519707462,1
495,940,26,0.0423786795750082,1
496,927,26,0.0434833079389812,1
496,934,26,0.0440260738272771,1
496,935,26,0.0503074885785971,1
496,936,26,0.045440800060071,1
497,925,26,0.0416452532934152,1
497,926,26,0.0565714449831859,1
497,927,26,0.0776632797149604,1
497,928,26,0.0625458220775928,1
498,917,26,0.0427170681837705,1
498,924,26,0.0435745736227295,1
498,925,26,0.0497418630154857,1
498,926,26,0.068033890408686,1
498,927,26,0.0881167797625829,1
498,928,26,0.0685379657026156,1
498,929,26,0.0411412374735686,1
499,925,26,0.0445672041782901,1
499,926,26,0.0524210190665692,1
499,927,26,0.0605651512843331,1
499,928,26,0.0484816991109684,1
507,948,26,0.041182826077798,1
508,947,26,0.0413636975777049,1
508,948,26,0.0456221689795813,1
509,946,26,0.0427859472819998,1
510,944,26,0.042168357590541,1
510,945,26,0.0474375126355393,1
511,942,26,0.0454979222134359,1
511,943,26,0.0526693071429369,1
511,944,26,0.0555887168624467,1
512,942,26,0.0521210371985951,1
512,943,26,0.0573788813543516,1
513,941,26,0.0431455654350298,1
513,942,26,0.051694494481973,1
513,943,26,0.0553225379005623,1
516,939,26,0.0436818108011336,1
517,939,26,0.0497750982144193,1
518,938,26,0.0416975553426888,1
518,939,26,0.0505153883458653,1
519,938,26,0.0455556228874265,1
519,939,26,0.0583768889076899,1
520,938,26,0.0498161623653712,1
527,933,26,0.0430582277441277,1
532,918,26,0.0418695841277989,1
533,919,26,0.0435711944134675,1
491,933,27,0.0460472140306585,1
491,934,27,0.045911158955668,1
491,935,27,0.0426709081852515,1
492,932,27,0.042465995638971,1
492,933,27,0.0498861525476059,1
492,934,27,0.0502836665049837,1
492,935,27,0.0463427623760809,1
492,936,27,0.0415951328616411,1
493,932,27,0.0453183483298856,1
493,933,27,0.0532793436258533,1
493,934,27,0.0561153923079206,1
493,935,27,0.0549799347420084,1
493,936,27,0.0475556227576649,1
494,932,27,0.0432354145542554,1
494,933,27,0.050350077428768,1
494,934,27,0.057427736610178,1
494,935,27,0.061522559665914,1
494,936,27,0.0541025568492214,1
494,937,27,0.0423677958178171,1
495,933,27,0.0448575133976726,1
495,934,27,0.0529307876522634,1
495,935,27,0.0584073342314569,1
495,936,27,0.051861816704423,1
495,937,27,0.0416750768426779,1
496,934,27,0.0459522879874377,1
496,935,27,0.0489874991533053,1
496,936,27,0.0445490375492975,1
496,939,27,0.0411787385862747,1
497,925,27,0.0443029121668575,1
497,926,27,0.0510198204842929,1
497,927,27,0.0626265500351784,1
497,928,27,0.0519607707650841,1
498,924,27,0.0493574820169837,1
498,925,27,0.0576828858330312,1
498,926,27,0.0673150001336545,1
498,927,27,0.0781992547443233,1
498,928,27,0.0628634947818953,1
498,929,27,0.0420946151343418,1
499,917,27,0.0482263498389269,1
499,924,27,0.0440507528683593,1
499,925,27,0.0504214463283815,1
499,926,27,0.0535045070973992,1
499,927,27,0.0579442582076614,1
499,928,27,0.0478516901496299,1
500,917,27,0.0450350354253591,1
501,914,27,0.0427913350932471,1
501,916,27,0.0426758931947548,1
507,911,27,0.0412699880498184,1
508,948,27,0.0426994314147902,1
509,947,27,0.0456974415417343,1
510,945,27,0.0429607443153374,1
511,943,27,0.0415170812377911,1
511,944,27,0.0452385070768103,1
512,942,27,0.0477536714540925,1
512,943,27,0.049816886867837,1
513,942,27,0.0491678948605482,1
514,941,27,0.0439160602905432,1
515,940,27,0.0424406272391992,1
516,939,27,0.042217672418827,1
516,940,27,0.052187339987683,1
517,939,27,0.0500390766352323,1
518,938,27,0.044962798744807,1
518,939,27,0.0536458337388384,1
519,938,27,0.0472803118206708,1
519,939,27,0.0572231890184977,1
520,938,27,0.046821999130251,1
521,938,27,0.0433143339590439,1
527,929,27,0.0420105268910661,1
529,905,27,0.0430188856382157,1
532,921,27,0.0431455492148253,1
533,915,27,0.0409982050072939,1
533,916,27,0.0425682991718526,1
533,919,27,0.0425209064377948,1
533,920,27,0.0426390895508405,1
534,913,27,0.0435875362694585,1
534,914,27,0.0429251193396136,1
534,915,27,0.0439189447835693,1
535,914,27,0.0426236830599731,1
491,933,28,0.0423144502687234,1
491,934,28,0.0412355174119786,1
492,932,28,0.0465715483599557,1
492,933,28,0.0496065865103091,1
492,934,28,0.0474649410012771,1
492,935,28,0.0441501043240297,1
493,931,28,0.0451934689757663,1
493,932,28,0.0546963136535972,1
493,933,28,0.0582909704846779,1
493,934,28,0.0563903139600076,1
493,935,28,0.0533606825444734,1
493,936,28,0.0458392818229814,1
494,931,28,0.0445597428842396,1
494,932,28,0.053785597833915,1
494,933,28,0.0573235866773556,1
494,934,28,0.0575330435842517,1
494,935,28,0.0566211328761744,1
494,936,28,0.0498954575382297,1
495,932,28,0.0455581910864656,1
495,933,28,0.05065520650829,1
495,934,28,0.0539988989292675,1
495,935,28,0.0542082477014673,1
495,936,28,0.0494473041025352,1
495,937,28,0.0424151534080985,1
496,933,28,0.0428607981188369,1
496,934,28,0.0464637110339866,1
496,935,28,0.0460162334401445,1
496,936,28,0.0434256883660129,1
497,925,28,0.0442250200416846,1
497,926,28,0.0441437162668408,1
497,927,28,0.0461449245423112,1
497,928,28,0.041869597644636,1
498,924,28,0.0519076874426291,1
498,925,28,0.0597785038085473,1
498,926,28,0.059298374943132,1
498,927,28,0.0593080313715191,1
498,928,28,0.0522083235255164,1
498,929,28,0.0412285265038573,1
499,924,28,0.0455589696562796,1
499,925,28,0.0508419226885365,1
499,926,28,0.049546328450749,1
499,927,28,0.0505097761551229,1
499,928,28,0.0458087229577833,1
500,916,28,0.0473828775801912,1
500,927,28,0.041071544661749,1
501,915,28,0.0416120153911141,1
507,908,28,0.0475066215199984,1
509,947,28,0.041195115586042,1
513,942,28,0.044078008218583,1
516,940,28,0.0456495540914406,1
517,939,28,0.0500504469985571,1
517,940,28,0.0552843176921253,1
518,938,28,0.0485936725890742,1
518,939,28,0.0567801233202681,1
519,938,28,0.0491611851026376,1
520,938,28,0.0432554681336998,1
527,932,28,0.0461975320721021,1
530,906,28,0.0414030559038214,1
533,920,28,0.0421604340206634,1
535,914,28,0.0441497555896338,1
535,915,28,0.0460261007311895,1
492,931,29,0.0427447344458404,1
492,932,29,0.046958967943426,1
492,933,29,0.0463816259859614,1
492,934,29,0.0435064487640074,1
493,931,29,0.0478449209176362,1
493,932,29,0.05682626980195,1
493,933,29,0.0568308384928722,1
493,934,29,0.0519143701668657,1
493,935,29,0.0463887682826575,1
494,931,29,0.0487969550048068,1
494,932,29,0.0602478354245286,1
494,933,29,0.0614587331613732,1
494,934,29,0.0548692588802592,1
494,935,29,0.0471643157318595,1
494,936,29,0.0420638399997509,1
495,931,29,0.0411598663783882,1
495,932,29,0.0514109599013189,1
495,933,29,0.0557278159291405,1
495,934,29,0.0517126557042307,1
495,935,29,0.0450236731721365,1
495,936,29,0.0426779288304143,1
496,933,29,0.0442754756910175,1
496,934,29,0.0432003789126269,1
497,925,29,0.0420462383745469,1
498,924,29,0.0483519320685726,1
498,925,29,0.0533293288892568,1
498,926,29,0.0489257650551396,1
498,927,29,0.0441933014318677,1
498,928,29,0.0418603196876862,1
499,924,29,0.0426084576947223,1
499,925,29,0.0457803916673306,1
499,926,29,0.0436667287143555,1
499,927,29,0.0427283682595426,1
499,928,29,0.0414650819656673,1
502,948,29,0.0500587571499743,1
503,947,29,0.0462610503927582,1
507,908,29,0.0438946523240266,1
507,909,29,0.0472061368256861,1
507,910,29,0.0430250033586637,1
508,908,29,0.0453224736685526,1
509,948,29,0.0430217241739958,1
515,941,29,0.0416526524100153,1
516,940,29,0.0428038003203728,1
517,938,29,0.0414764415155225,1
517,939,29,0.0496812264844883,1
517,940,29,0.0524094594675257,1
518,938,29,0.0507054458882301,1
518,939,29,0.0585269366123926,1
519,938,29,0.0505630108661529,1
520,938,29,0.0426263620970761,1
522,938,29,0.0416055570463726,1
527,930,29,0.0418598682253288,1
527,931,29,0.0437132401506377,1
528,932,29,0.0530192526473753,1
530,905,29,0.0427881370096016,1
532,922,29,0.0443436870574966,1
533,920,29,0.0412388479606272,1
533,921,29,0.048753647058905,1
534,920,29,0.049359179731717,1
535,913,29,0.0432909957881968,1
535,915,29,0.0463162964091409,1
492,932,30,0.0451631696338395,1
492,933,30,0.0431902926488217,1
493,931,30,0.0477781261156797,1
493,932,30,0.056870113014599,1
493,933,30,0.0581393980807562,1
493,934,30,0.0487712513874763,1
494,931,30,0.0492669949030495,1
494,932,30,0.0635997839295751,1
494,933,30,0.0682884124503002,1
494,934,30,0.0547713104722744,1
495,931,30,0.0419835013270723,1
495,932,30,0.0540493707988048,1
495,933,30,0.0598823077103412,1
495,934,30,0.0490805220258698,1
496,933,30,0.0420999299546691,1
498,925,30,0.0445993012595443,1
498,926,30,0.0412927801404488,1
502,947,30,0.0417995479883183,1
502,948,30,0.0559215987117957,1
502,949,30,0.0475112659052081,1
503,947,30,0.0559673991624492,1
503,948,30,0.081112149348376,1
504,947,30,0.0481768890288008,1
504,948,30,0.0708346439258535,1
505,948,30,0.0432671331640723,1
505,949,30,0.0443375206764353,1
507,909,30,0.042227196382211,1
508,909,30,0.044919436731557,1
508,910,30,0.0418604007887085,1
509,906,30,0.0437613384635894,1
509,908,30,0.041361797110416,1
509,910,30,0.042228931944088,1
510,947,30,0.0436208147222707,1
514,942,30,0.0427907998265,1
517,939,30,0.048654357780685,1
517,940,30,0.0500217858972805,1
518,938,30,0.0493484041092223,1
518,939,30,0.0573855316381792,1
519,938,30,0.0481687086390193,1
520,938,30,0.0411473930411603,1
520,939,30,0.0500098370133301,1
521,939,30,0.0488224964200927,1
522,938,30,0.0427660153540888,1
528,931,30,0.0449169955907861,1
528,932,30,0.0437044487998217,1
528,933,30,0.0479993264506032,1
531,905,30,0.0438462269036183,1
532,923,30,0.0440991458483586,1
533,921,30,0.0435935755922516,1
533,922,30,0.0525078782614398,1
534,917,30,0.0427859364685302,1
534,919,30,0.0476797938295228,1
534,920,30,0.0475383482399175,1
534,921,30,0.0515686365088514,1
535,915,30,0.0455383429629443,1
535,916,30,0.0462083725754147,1
535,920,30,0.0528160621461346,1
536,916,30,0.0518287923681473,1
493,931,31,0.0424217523279454,1
493,932,31,0.049852295574168,1
493,933,31,0.0542743612548365,1
493,934,31,0.0429125054272804,1
494,931,31,0.0444347013280757,1
494,932,31,0.0580825084169885,1
494,933,31,0.0669718833352927,1
494,934,31,0.0506700804357776,1
495,932,31,0.0486596077201945,1
495,933,31,0.0555437328287509,1
495,934,31,0.0426926216322855,1
502,947,31,0.0416581186189175,1
502,948,31,0.0557916965010294,1
503,947,31,0.0608155047334017,1
503,948,31,0.0863593097961298,1
503,949,31,0.0654871398865901,1
504,947,31,0.0527442444875311,1
504,948,31,0.0756274926669537,1
504,949,31,0.0584755239709967,1
505,930,31,0.0415937703644667,1
505,931,31,0.0542214185074869,1
505,932,31,0.0445355639661281,1
505,948,31,0.0458627254251575,1
505,949,31,0.0440395338936095,1
506,930,31,0.0415513653432796,1
506,931,31,0.0560796051301522,1
506,932,31,0.0469175631681805,1
510,947,31,0.041391866666113,1
511,945,31,0.0425794721893565,1
511,946,31,0.0492421888036989,1
511,947,31,0.0509604166888343,1
512,944,31,0.0431090618648979,1
515,942,31,0.0507117068871507,1
516,941,31,0.0474831833245571,1
517,939,31,0.0473847050565601,1
517,940,31,0.0490551049654847,1
518,938,31,0.0462663922467596,1
518,939,31,0.0533018572696404,1
518,940,31,0.0539690321261262,1
519,938,31,0.0450831661787197,1
519,939,31,0.0520499656693966,1
520,938,31,0.0412542868919035,1
520,939,31,0.0488544502228743,1
521,938,31,0.0414553795800343,1
521,939,31,0.0489453536553896,1
522,938,31,0.0441424024302797,1
523,937,31,0.0438892266656355,1
528,928,31,0.0444952675715205,1
528,930,31,0.0440087993095297,1
528,933,31,0.046718914324188,1
529,927,31,0.0423580177378965,1
530,904,31,0.0439791568858834,1
531,904,31,0.0598363829047869,1
531,905,31,0.041515034788662,1
532,905,31,0.0411324596395897,1
532,923,31,0.0423384183241769,1
532,924,31,0.0496125879859584,1
533,922,31,0.0500855529277383,1
533,923,31,0.0633345403328144,1
533,924,31,0.0686646779398385,1
533,925,31,0.0612967365727201,1
533,926,31,0.0533614503008178,1
534,918,31,0.0422581904895621,1
534,919,31,0.0434387158935598,1
534,920,31,0.045536856110869,1
534,921,31,0.0504328112849715,1
534,922,31,0.069794804465219,1
535,915,31,0.0433280940991588,1
535,916,31,0.0445526870953005,1
535,917,31,0.050180273515036,1
535,919,31,0.0533262416436751,1
535,920,31,0.0536661576550238,1
535,921,31,0.0598550361399132,1
536,916,31,0.0507200873261205,1
536,917,31,0.0553317671968987,1
536,919,31,0.0591757664176368,1
493,932,32,0.0444656521815483,1
493,933,32,0.0481956071447449,1
494,932,32,0.051477706042662,1
494,933,32,0.0593162820488532,1
494,934,32,0.0446633953974586,1
495,932,32,0.04169811764311,1
495,933,32,0.046738832735262,1
503,947,32,0.0546090111064714,1
503,948,32,0.0696981536735908,1
504,947,32,0.0488731088647353,1
504,948,32,0.0621476106514233,1
505,930,32,0.0433013821257845,1
505,931,32,0.0584931445197725,1
505,932,32,0.0493469388840863,1
505,948,32,0.0411117356250276,1
506,930,32,0.0437387869726584,1
506,931,32,0.0619851436768409,1
506,932,32,0.054775268202162,1
506,933,32,0.047155659549414,1
506,934,32,0.0480208831023273,1
507,933,32,0.048514728853979,1
507,934,32,0.0578474398072538,1
507,935,32,0.0429357922341467,1
508,934,32,0.0510804299816162,1
511,946,32,0.0432093162452831,1
512,944,32,0.0412445466591266,1
512,945,32,0.0481586845526645,1
513,944,32,0.0496960030907491,1
514,943,32,0.0478562804674914,1
515,942,32,0.0478065925745029,1
516,941,32,0.0478166166608577,1
516,942,32,0.0569260781267126,1
517,939,32,0.0461203455258231,1
517,940,32,0.0484135201848982,1
517,941,32,0.0533896356094303,1
518,938,32,0.0433178618535135,1
518,939,32,0.0497595916989578,1
518,940,32,0.0516872224236411,1
519,938,32,0.0424232851372666,1
519,939,32,0.0491503986666732,1
520,938,32,0.0412178022453434,1
520,939,32,0.0479382573808202,1
521,938,32,0.0419284796901846,1
522,937,32,0.0421162799207624,1
523,900,32,0.0417112614154555,1
525,935,32,0.0417376273578014,1
526,902,32,0.041611823452028,1
526,934,32,0.0435515977031152,1
527,933,32,0.0437462915205875,1
527,934,32,0.0563271524838497,1
528,928,32,0.0414141802607119,1
528,929,32,0.0436516331107402,1
528,933,32,0.0464443008559856,1
529,928,32,0.0525949699459076,1
529,930,32,0.0512164742431371,1
530,903,32,0.0462828233138751,1
530,927,32,0.042831442252136,1
531,904,32,0.0536082515251101,1
531,925,32,0.0422413431038655,1
531,926,32,0.0437963795119527,1
531,927,32,0.0477840735239809,1
532,923,32,0.041377498268331,1
532,924,32,0.0467927000342657,1
532,925,32,0.0486564123399163,1
532,926,32,0.0482242952796956,1
533,922,32,0.046651297698539,1
533,923,32,0.0570804836596795,1
533,924,32,0.0603918978737864,1
533,925,32,0.0549632117112125,1
533,926,32,0.0507023045753001,1
534,920,32,0.0420249115090526,1
534,921,32,0.0477455018777806,1
534,922,32,0.0632682862043398,1
534,923,32,0.0812151584601515,1
534,924,32,0.0814640899379627,1
534,925,32,0.0647105435308331,1
535,916,32,0.041461740603549,1
535,917,32,0.0466909398782334,1
535,918,32,0.0486646954576593,1
535,919,32,0.050260060700763,1
535,920,32,0.0524219382114885,1
535,921,32,0.0580641038916639,1
535,922,32,0.0779384122297054,1
536,916,32,0.0490855719161909,1
536,917,32,0.0561575378058363,1
536,918,32,0.0584541457415216,1
536,919,32,0.0603273630869843,1
536,920,32,0.0622990857341182,1
494,932,33,0.0413851244677935,1
494,933,33,0.0440060662050786,1
503,947,33,0.0441647917191661,1
504,947,33,0.0422072563441978,1
505,931,33,0.0506165916082112,1
505,932,33,0.0474297377508692,1
506,931,33,0.0528798075496531,1
506,932,33,0.0525397563699338,1
506,933,33,0.0497731301629451,1
506,934,33,0.0517711241345656,1
507,932,33,0.0420713526577821,1
507,933,33,0.0555907443880039,1
507,934,33,0.0669907041791984,1
507,935,33,0.0489528527965838,1
508,933,33,0.0442316676221448,1
508,934,33,0.0584619963204791,1
508,935,33,0.0457060274366272,1
509,934,33,0.0449427694956693,1
509,935,33,0.0425567044290328,1
509,936,33,0.0412229656770958,1
509,937,33,0.0425450718390693,1
510,907,33,0.0417153732372855,1
510,936,33,0.0456081601296647,1
510,937,33,0.049953974629178,1
510,938,33,0.0417169465971179,1
511,907,33,0.0429062038778486,1
511,937,33,0.0410799899815366,1
516,941,33,0.0466086385608154,1
517,938,33,0.0424188894618586,1
517,939,33,0.046648994429506,1
517,940,33,0.0474781766881145,1
518,938,33,0.0436388299626883,1
518,939,33,0.0482354169332187,1
519,938,33,0.0432114194651277,1
520,938,33,0.042883957867435,1
521,936,33,0.0424557336562841,1
521,937,33,0.0433243093847854,1
522,936,33,0.0452215488530499,1
522,937,33,0.0462332381488482,1
523,936,33,0.044389684853971,1
526,934,33,0.0437631362029167,1
527,933,33,0.0452259931890713,1
529,928,33,0.043807001042505,1
529,929,33,0.0460311614349803,1
529,930,33,0.044824186284247,1
529,931,33,0.043260307161363,1
529,932,33,0.0437756527940232,1
530,928,33,0.0474181619316213,1
530,929,33,0.0505504185807589,1
530,930,33,0.0511504417907902,1
531,927,33,0.0446749360729302,1
531,928,33,0.0513719989702117,1
531,929,33,0.0549043323690314,1
532,924,33,0.0426860037888667,1
532,925,33,0.0437440396155353,1
532,926,33,0.0453706747094659,1
532,927,33,0.0506624244992736,1
533,922,33,0.0423458958384319,1
533,923,33,0.049000578044833,1
533,924,33,0.0511080800234817,1
533,925,33,0.0490168631301084,1
533,926,33,0.0494723859453615,1
533,927,33,0.0550912485984662,1
534,921,33,0.0444687313170278,1
534,922,33,0.054677357641321,1
534,923,33,0.0613881374248388,1
534,924,33,0.0609723054498935,1
534,925,33,0.0550107585372126,1
535,917,33,0.0449081988332353,1
535,918,33,0.0469005860208482,1
535,919,33,0.0483667735556513,1
535,920,33,0.0503917146936107,1
535,921,33,0.0546418245800892,1
535,922,33,0.0648198352684686,1
535,923,33,0.0733001258168819,1
536,917,33,0.0579660311287783,1
536,918,33,0.0602385088069655,1
536,919,33,0.0604318806777744,1
536,920,33,0.0609199844770481,1
536,921,33,0.0614223188023659,1
505,931,34,0.0411906955803273,1
505,932,34,0.0413971409359292,1
506,931,34,0.0422818152173546,1
506,932,34,0.045084263745888,1
506,933,34,0.0457334558023651,1
506,934,34,0.0473666087151202,1
507,932,34,0.0410540700948134,1
507,933,34,0.0521253085191023,1
507,934,34,0.0610570343912453,1
507,935,34,0.0480954365687494,1
508,933,34,0.043297002670581,1
508,934,34,0.0558504082344312,1
508,935,34,0.0490577056049327,1
509,934,34,0.047974958296773,1
509,935,34,0.0518905210595781,1
509,936,34,0.0551061657798324,1
509,937,34,0.0611915863939562,1
510,907,34,0.0427227155182892,1
510,934,34,0.0414820861466737,1
510,935,34,0.0534467361358559,1
510,936,34,0.0708454952426357,1
510,937,34,0.0840023681065969,1
510,938,34,0.0644584815535617,1
511,906,34,0.0444644708099903,1
511,907,34,0.0447590135027363,1
511,935,34,0.046339020915586,1
511,936,34,0.0606940099952793,1
511,937,34,0.0697722367540836,1
511,938,34,0.0532031032581676,1
512,936,34,0.0434864492519112,1
512,937,34,0.0449249867448489,1
517,938,34,0.0447566075057417,1
517,939,34,0.0470339755755729,1
518,938,34,0.0456969819692747,1
520,936,34,0.0429032085467588,1
520,937,34,0.0450079260569756,1
521,935,34,0.0430093049041161,1
521,936,34,0.0512857345161712,1
522,935,34,0.0447677615996738,1
522,936,34,0.053622190087474,1
523,935,34,0.0411893195663159,1
529,930,34,0.0420239599237244,1
529,931,34,0.0425129179870994,1
530,928,34,0.0421729695353417,1
530,929,34,0.0459021026748458,1
530,930,34,0.0481050875904017,1
531,927,34,0.0416746605240969,1
531,928,34,0.0474790363589508,1
531,929,34,0.0517028208535945,1
532,926,34,0.0435129611760972,1
532,927,34,0.048220813342472,1
532,928,34,0.0529109990028251,1
533,923,34,0.0435566854405801,1
533,924,34,0.0450985429325455,1
533,925,34,0.0459561646163031,1
533,926,34,0.049527188609489,1
533,927,34,0.0536028177566168,1
534,921,34,0.0415803427385432,1
534,922,34,0.0491998865104735,1
534,923,34,0.0515286807385375,1
534,924,34,0.0511806329980206,1
534,925,34,0.0517049186667044,1
534,926,34,0.0554790412466391,1
535,917,34,0.0423582502274938,1
535,918,34,0.0455658578364393,1
535,919,34,0.0463560629437361,1
535,920,34,0.0486723676143678,1
535,921,34,0.0530883453116299,1
535,922,34,0.0586477284749885,1
536,920,34,0.0594060608805261,1
536,921,34,0.0599175163674839,1
507,933,35,0.0449106426773736,1
508,933,35,0.0421390044272075,1
508,934,35,0.0487879852317417,1
509,934,35,0.0482471279208371,1
509,935,35,0.0570256053012646,1
510,907,35,0.0412081241900171,1
510,934,35,0.0452303915678467,1
510,935,35,0.0616823719337001,1
511,906,35,0.045226195941627,1
511,907,35,0.0437470133196859,1
511,935,35,0.0553393960997286,1
512,935,35,0.0453212030858701,1
512,936,35,0.0591566590167857,1
520,935,35,0.042780978492701,1
520,936,35,0.0482008030169061,1
521,935,35,0.0497921186156302,1
521,936,35,0.0558763064942152,1
522,935,35,0.0517271241266069,1
530,929,35,0.0435300113143496,1
530,930,35,0.0464028474201267,1
531,928,35,0.0441864754291585,1
531,929,35,0.0490869181931609,1
532,926,35,0.04218677833607,1
532,927,35,0.0457962334003509,1
532,928,35,0.0493067073702965,1
533,923,35,0.0417037487574242,1
533,924,35,0.0429387253877862,1
533,925,35,0.0449870641706757,1
533,926,35,0.0495931507742834,1
533,927,35,0.0517113202407303,1
534,921,35,0.0411386070970791,1
534,922,35,0.0474435357381279,1
534,923,35,0.0486052916622007,1
534,924,35,0.0484657816836607,1
534,925,35,0.0508987474714864,1
534,926,35,0.0558805237473742,1
535,918,35,0.0414703670489531,1
535,919,35,0.0433705045270807,1
535,920,35,0.0472336138520373,1
535,921,35,0.0526094221480793,1
535,922,35,0.0562531883515229,1
535,923,35,0.0553376605378516,1
536,921,35,0.0589868929501974,1
536,922,35,0.0603665673211584,1
508,933,36,0.0439589356976595,1
509,933,36,0.0454508079262213,1
509,934,36,0.0475546116982537,1
510,934,36,0.0462799361174817,1
511,906,36,0.0420015895584099,1
511,907,36,0.0410305967555958,1
512,935,36,0.0531963880935222,1
520,935,36,0.0461479631272796,1
521,934,36,0.0434300597111143,1
521,935,36,0.0526439279296955,1
522,934,36,0.0450757562486499,1
530,904,36,0.0423780767240758,1
530,929,36,0.0424100575605314,1
530,930,36,0.045485719212949,1
531,928,36,0.0420525939913269,1
531,929,36,0.0469876290447026,1
532,927,36,0.0431792412828512,1
532,928,36,0.0462187589130023,1
533,925,36,0.0436718705191685,1
533,926,36,0.0483705150161462,1
533,927,36,0.0494395886919482,1
534,922,36,0.0454021419061136,1
534,923,36,0.0463628646161387,1
534,924,36,0.0462975620729923,1
534,925,36,0.0500958581643037,1
534,926,36,0.0551483220912178,1
535,919,36,0.041508798120048,1
535,920,36,0.045575135793389,1
535,921,36,0.0508508924616016,1
535,922,36,0.0531757073328387,1
535,923,36,0.0514356416457686,1
535,924,36,0.0544788331522293,1
509,932,37,0.0486584723058824,1
509,933,37,0.0497027344755991,1
521,934,37,0.0478022780001171,1
522,933,37,0.0416746983712406,1
525,932,37,0.0421419538010514,1
526,927,37,0.0412010656977106,1
526,931,37,0.04202498720334,1
526,932,37,0.0431123707866072,1
527,927,37,0.0502846775643949,1
527,928,37,0.0456415683441126,1
527,931,37,0.0413262289054078,1
528,927,37,0.045068905915634,1
528,928,37,0.0426476538187941,1
530,904,37,0.0413205599439499,1
530,929,37,0.042695370956941,1
531,928,37,0.041837495156647,1
531,929,37,0.0455031721529454,1
532,927,37,0.0424967329264181,1
532,928,37,0.0445809372847309,1
533,924,37,0.0409950474741595,1
533,925,37,0.0439823738931008,1
533,926,37,0.047656371854286,1
533,927,37,0.0483318460487193,1
534,922,37,0.0432249200819713,1
534,923,37,0.04465737229487,1
534,924,37,0.0462594499992517,1
534,925,37,0.0506139693418239,1
535,919,37,0.0412789794498228,1
535,920,37,0.0449711791837768,1
535,921,37,0.0482383798238996,1
535,922,37,0.0493831099400268,1
535,923,37,0.0490327373035376,1
523,927,38,0.0445370913687145,1
523,928,38,0.0423221737894126,1
524,927,38,0.041926733314838,1
524,928,38,0.0415609677043186,1
524,931,38,0.0412775169280542,1
525,930,38,0.0425413384886766,1
525,931,38,0.0445159834759803,1
526,927,38,0.0440199588101965,1
526,928,38,0.0425029452647254,1
526,929,38,0.0413868194791593,1
526,930,38,0.0436919132851433,1
526,931,38,0.0456776258586219,1
527,926,38,0.0431206674211873,1
527,927,38,0.0533766810728035,1
527,928,38,0.0476121501701997,1
527,930,38,0.0409922738191972,1
528,927,38,0.0462818014409943,1
528,928,38,0.0432334573162508,1
531,928,38,0.041349296739514,1
533,925,38,0.0419817225113167,1
534,923,38,0.0413241283889306,1
535,919,38,0.0414965464589477,1
522,927,39,0.0411862566510408,1
523,926,39,0.0409955313769258,1
523,927,39,0.0480961340375411,1
523,928,39,0.045585273421175,1
524,927,39,0.0474251203993337,1
524,928,39,0.0455366668751504,1
524,929,39,0.0418488601132369,1
525,927,39,0.0442559249379112,1
525,928,39,0.0447289872009178,1
525,929,39,0.0440584304318026,1
525,930,39,0.0455051780515633,1
526,927,39,0.0447269596753606,1
526,928,39,0.0452232384576809,1
526,929,39,0.0449299230937389,1
526,930,39,0.0468540664744637,1
527,926,39,0.0418916030553502,1
527,927,39,0.0490146517755674,1
527,928,39,0.0473263717945956,1
528,927,39,0.0438010617443061,1
528,928,39,0.0433383587852131,1
529,913,39,0.0414350854008904,1
517,929,40,0.0417228885986842,1
522,927,40,0.0441790384654147,1
522,928,40,0.0431306212199895,1
523,926,40,0.0443892333916136,1
523,927,40,0.0492691089363638,1
523,928,40,0.0467022832078841,1
523,929,40,0.0428207612475007,1
524,926,40,0.046171817641302,1
524,927,40,0.0502879378254908,1
524,928,40,0.0470524774221242,1
525,926,40,0.0445007121534834,1
525,927,40,0.0478824166236074,1
525,928,40,0.0467250131210641,1
526,926,40,0.0413707371464396,1
526,927,40,0.044478414779089,1
527,927,40,0.0428836523869177,1
529,913,40,0.0488124507067987,1
529,914,40,0.0455008256300338,1
530,913,40,0.0431710122324564,1
530,914,40,0.041300952420128,1
517,914,41,0.0474587611033788,1
517,915,41,0.0563388526579984,1
517,916,41,0.048394418190782,1
518,914,41,0.0528465074699016,1
518,915,41,0.0628859273246602,1
518,916,41,0.0528072059145007,1
519,914,41,0.0457466212016498,1
519,915,41,0.0528715190251752,1
519,916,41,0.0457605435438093,1
522,926,41,0.041830077116475,1
522,927,41,0.0449518257764915,1
523,926,41,0.0456223690287696,1
523,927,41,0.0481769160624749,1
523,928,41,0.0465576043908569,1
524,925,41,0.0420405261592104,1
524,926,41,0.0477703187906008,1
524,927,41,0.0490054549196399,1
525,925,41,0.0410525994629425,1
525,926,41,0.0467899371927731,1
525,927,41,0.0473618399750096,1
528,913,41,0.042500460870076,1
529,912,41,0.0428142893859221,1
529,913,41,0.0496807831322331,1
529,914,41,0.0470632314176796,1
530,913,41,0.0445392243256007,1
530,914,41,0.0436042890372958,1
529,914,42,0.0454680175631509,1
530,914,42,0.0432080808063769,1
