x,y,z,signal,cytoplasm.p
31,332,1,0.0453114763699304,1
31,335,1,0.04295162045033,1
31,336,1,0.0417997723678133,1
31,341,1,0.0431626885642022,1
31,342,1,0.0426321662269045,1
32,336,1,0.0443518566338084,1
32,341,1,0.0412556196520364,1
32,342,1,0.0414406354141823,1
33,335,1,0.0465375183710036,1
33,336,1,0.0451979052016855,1
33,341,1,0.0417853553094179,1
33,342,1,0.0439141598232543,1
33,343,1,0.0434691963611031,1
33,344,1,0.0411616235672045,1
34,342,1,0.0438039678642714,1
34,343,1,0.0456108959374833,1
34,344,1,0.0445092953450089,1
34,345,1,0.0431354115870393,1
34,346,1,0.0412165127390891,1
34,348,1,0.0435782772360806,1
34,349,1,0.0435283271164534,1
35,343,1,0.0437540177446442,1
35,344,1,0.0458606276120477,1
35,345,1,0.0457002097899618,1
35,346,1,0.0432028065365607,1
35,347,1,0.0433477556903289,1
35,348,1,0.0446678856907259,1
35,349,1,0.0440897246129362,1
36,343,1,0.0410563219998656,1
36,344,1,0.0456470669934238,1
36,345,1,0.0464281941929592,1
36,346,1,0.0431750375465293,1
36,347,1,0.0419133381293234,1
36,348,1,0.0427317501721721,1
36,349,1,0.0426320553888407,1
37,344,1,0.0424678825894228,1
37,345,1,0.0435379402909619,1
37,346,1,0.0415619895771994,1
38,350,1,0.0409987943413892,1
40,350,1,0.0411534269572185,1
41,349,1,0.0412116926349977,1
41,350,1,0.0422557682723631,1
44,359,1,0.0485708453546675,1
44,360,1,0.0469333238001785,1
45,354,1,0.0421173450475217,1
45,355,1,0.041524453320717,1
45,358,1,0.0466949030148559,1
45,359,1,0.0560414389890634,1
45,360,1,0.0531291445325757,1
45,361,1,0.0424774687302573,1
46,354,1,0.0422138768909839,1
46,355,1,0.0428578568550953,1
46,358,1,0.0464405161416122,1
46,359,1,0.0531323507263235,1
46,360,1,0.0497165324628577,1
46,361,1,0.0415289300971473,1
47,359,1,0.0422168560018693,1
54,372,1,0.042682408310212,1
54,373,1,0.0438451455566545,1
54,374,1,0.0426919295702286,1
55,372,1,0.0410280393700263,1
55,373,1,0.0422744133973871,1
55,374,1,0.0412848917143476,1
58,330,1,0.0437515063163206,1
58,331,1,0.0436348992664748,1
59,331,1,0.0436356480992472,1
59,332,1,0.0430038549154183,1
60,331,1,0.0442923663305927,1
60,332,1,0.0477844249617441,1
60,333,1,0.0441686575345618,1
60,377,1,0.0410456815457414,1
61,331,1,0.0429681488386723,1
61,332,1,0.0480479762505064,1
61,333,1,0.0448083472545941,1
62,332,1,0.0432921609395504,1
31,331,2,0.0429588222211092,1
31,332,2,0.0463045475743787,1
31,333,2,0.0426001286197333,1
31,335,2,0.0415756983533335,1
31,336,2,0.0423523055225601,1
32,332,2,0.0485988414275614,1
32,335,2,0.0438697543101841,1
32,336,2,0.0448274249184037,1
32,337,2,0.0413624810623706,1
33,335,2,0.0437904564339582,1
33,336,2,0.043994630960936,1
33,341,2,0.0428767804269625,1
33,342,2,0.0459963042156009,1
33,343,2,0.0450006377784393,1
33,344,2,0.041252851403809,1
34,342,2,0.0455488536554329,1
34,343,2,0.0470775214178068,1
34,344,2,0.0453086432408851,1
34,345,2,0.0428304338960922,1
34,349,2,0.041292490880136,1
35,343,2,0.0426036078535894,1
35,344,2,0.0454227685994489,1
35,345,2,0.0454364908924201,1
35,346,2,0.041599533943784,1
35,348,2,0.0422767869539728,1
35,349,2,0.0435138613974446,1
36,344,2,0.0444917369736836,1
36,345,2,0.0459173010064226,1
36,346,2,0.0424711915111322,1
36,348,2,0.042126639224676,1
36,349,2,0.0439544075572485,1
37,345,2,0.0422699744681006,1
37,346,2,0.042008434484691,1
37,349,2,0.0414371021129779,1
38,346,2,0.041268955363468,1
38,347,2,0.0413035098056975,1
38,350,2,0.043052283039194,1
39,349,2,0.0415128342475906,1
39,350,2,0.0449102966463451,1
39,351,2,0.0419347731295141,1
40,349,2,0.0417304012567155,1
40,350,2,0.044361185954739,1
41,350,2,0.0418800758967156,1
43,359,2,0.0423094111918719,1
43,360,2,0.0441286098497559,1
44,359,2,0.0497038915168504,1
44,360,2,0.0502897166412464,1
44,361,2,0.042694354490795,1
45,358,2,0.0447705595849427,1
45,359,2,0.0553441918735132,1
45,360,2,0.0540194553350502,1
45,361,2,0.0444601183884608,1
46,355,2,0.042235749836695,1
46,356,2,0.0414791394761973,1
46,357,2,0.041184799536007,1
46,358,2,0.0462288100330313,1
46,359,2,0.0524868406562582,1
46,360,2,0.0490844256884093,1
46,361,2,0.0420773811671056,1
47,358,2,0.0409953502513094,1
47,359,2,0.0420315942332891,1
58,331,2,0.0431843209102139,1
59,331,2,0.0423120631953007,1
59,332,2,0.0422191836012089,1
60,331,2,0.0428985911952232,1
60,332,2,0.0471940419598955,1
60,333,2,0.0432494909883572,1
61,331,2,0.041579510101381,1
61,332,2,0.0474228279437703,1
61,333,2,0.043693613703244,1
62,332,2,0.0414595454692125,1
30,336,3,0.0412887629364781,1
31,332,3,0.0437712814489219,1
31,335,3,0.0413480775208123,1
31,336,3,0.0443319301126322,1
31,337,3,0.0427267354256273,1
31,338,3,0.0420076261778356,1
31,339,3,0.043912402634438,1
31,340,3,0.0430284014914975,1
32,331,3,0.0435230041860239,1
32,332,3,0.0452831126390688,1
32,335,3,0.0419633666466055,1
32,336,3,0.0447583701012928,1
32,337,3,0.0432824017832017,1
32,338,3,0.0445346502279436,1
32,339,3,0.0480122269198818,1
32,340,3,0.0459437777868323,1
32,341,3,0.0420396745984764,1
32,342,3,0.0417361107686846,1
33,336,3,0.041821345239742,1
33,338,3,0.041236925866399,1
33,339,3,0.0439199477328782,1
33,340,3,0.0437789211652214,1
33,341,3,0.044520522429861,1
33,342,3,0.0482107405955038,1
33,343,3,0.0470752397757131,1
33,344,3,0.0412298079000095,1
34,341,3,0.0422822801965491,1
34,342,3,0.0467115179109553,1
34,343,3,0.0477755633233754,1
34,344,3,0.0444943132828249,1
35,344,3,0.04217033104875,1
35,345,3,0.0422196188433619,1
35,349,3,0.042161896542432,1
36,345,3,0.041477441761464,1
36,349,3,0.0455406516387121,1
36,350,3,0.0412210111424586,1
37,349,3,0.0421355333034536,1
38,347,3,0.0411016358443854,1
38,350,3,0.0423250069184579,1
38,351,3,0.0413562011398781,1
39,347,3,0.0422217545036155,1
39,348,3,0.0421822258653522,1
39,349,3,0.043758418826787,1
39,350,3,0.0469056737583131,1
39,351,3,0.0446574398790552,1
40,347,3,0.0441073370516097,1
40,348,3,0.0443865192107344,1
40,349,3,0.0446754983733514,1
40,350,3,0.046319253893087,1
40,351,3,0.0433990926374373,1
41,347,3,0.0413341200348765,1
41,348,3,0.041404472468344,1
41,349,3,0.0414950514967702,1
41,350,3,0.041809128722418,1
43,359,3,0.0436524360108609,1
43,360,3,0.0469978369600413,1
44,359,3,0.0471197588302144,1
44,360,3,0.0503611179812688,1
44,361,3,0.0438494195805291,1
45,359,3,0.0480057874987121,1
45,360,3,0.0498963334292704,1
45,361,3,0.0450947609215395,1
46,356,3,0.0414569340162948,1
46,357,3,0.0422907876937871,1
46,358,3,0.0435219282457948,1
46,359,3,0.0455046914454296,1
46,360,3,0.0444042424874717,1
46,361,3,0.0417365973748183,1
47,357,3,0.0415367968963093,1
60,332,3,0.0422392777311645,1
61,332,3,0.0429817008194966,1
67,383,3,0.0413225361055263,1
29,336,4,0.041151799530038,1
30,335,4,0.0429572948185227,1
30,336,4,0.0480447105826756,1
30,337,4,0.0437763637796519,1
31,332,4,0.0434816210377176,1
31,333,4,0.0412482556792126,1
31,335,4,0.0444201977619232,1
31,336,4,0.0498327826682055,1
31,337,4,0.0464151531485753,1
31,338,4,0.046753425512539,1
31,339,4,0.0519848415484992,1
31,340,4,0.0482519831687047,1
32,332,4,0.0432802039454977,1
32,335,4,0.0416747362183843,1
32,336,4,0.0463457090465573,1
32,337,4,0.0454441414221893,1
32,338,4,0.0500886347665852,1
32,339,4,0.058289472819133,1
32,340,4,0.0543456544601626,1
32,341,4,0.0449565593728257,1
32,342,4,0.0431586821737012,1
33,338,4,0.0431070748898518,1
33,339,4,0.0485282619112314,1
33,340,4,0.0483505263175196,1
33,341,4,0.04773056847621,1
33,342,4,0.0528693779581868,1
33,343,4,0.0516100737245058,1
33,344,4,0.0425864955378866,1
34,341,4,0.0443269910603749,1
34,342,4,0.0505408054062504,1
34,343,4,0.0513144550915308,1
34,344,4,0.0452992949963827,1
35,344,4,0.0416000611004288,1
36,349,4,0.0473557195511943,1
36,350,4,0.0437101150579122,1
37,349,4,0.0445408274224746,1
37,350,4,0.0438272735947096,1
38,347,4,0.0410809767106412,1
38,350,4,0.042860825152511,1
38,351,4,0.0422426839741006,1
39,347,4,0.0438940738034009,1
39,348,4,0.0456307819081483,1
39,349,4,0.0452136415033768,1
39,350,4,0.0480068742524108,1
39,351,4,0.0467655311917992,1
39,352,4,0.041991254584803,1
40,347,4,0.0478435908608707,1
40,348,4,0.0507351018287134,1
40,349,4,0.0483803174263735,1
40,350,4,0.0486606295930753,1
40,351,4,0.0464319356534541,1
40,352,4,0.0429328482670377,1
40,353,4,0.0410700415894693,1
41,347,4,0.0444991523104881,1
41,348,4,0.0465350691201305,1
41,349,4,0.0446283651625649,1
41,350,4,0.043975788490091,1
41,351,4,0.0436950897418496,1
41,352,4,0.0420721447444332,1
41,355,4,0.0419971317055515,1
41,356,4,0.0410410804144102,1
42,355,4,0.0411043175848557,1
43,359,4,0.0471317185276345,1
43,360,4,0.0493502802462045,1
44,359,4,0.045963582656475,1
44,360,4,0.0496890121826279,1
44,361,4,0.0438038948733513,1
45,359,4,0.04101477124278,1
45,360,4,0.0455032370337632,1
45,361,4,0.0460600982797327,1
46,356,4,0.0415513437163404,1
46,357,4,0.0425989796885842,1
46,360,4,0.0420180422524648,1
46,361,4,0.0446567045631198,1
67,330,4,0.0447700405384001,1
67,331,4,0.0416551935753803,1
29,336,5,0.0433884792169871,1
30,335,5,0.0480603360463031,1
30,336,5,0.0553252034208281,1
30,337,5,0.047504988686083,1
30,339,5,0.0434115686780326,1
30,340,5,0.0417274978401176,1
31,332,5,0.0445265995997978,1
31,333,5,0.0426016722425242,1
31,335,5,0.0484478637644698,1
31,336,5,0.055900058280276,1
31,337,5,0.0507412655064073,1
31,338,5,0.0517358343764006,1
31,339,5,0.0622904998392253,1
31,340,5,0.0561546289825035,1
31,341,5,0.0433272776822011,1
32,331,5,0.0413997037282335,1
32,332,5,0.0427748905092945,1
32,335,5,0.0419912059241896,1
32,336,5,0.0479524554664554,1
32,337,5,0.0482724206263214,1
32,338,5,0.054766179480931,1
32,339,5,0.0683243834570524,1
32,340,5,0.0633958148585205,1
32,341,5,0.0512230650528818,1
32,342,5,0.0471438188001599,1
32,343,5,0.0444368505051664,1
33,337,5,0.0427114208492518,1
33,338,5,0.0454135284896429,1
33,339,5,0.0531823305829922,1
33,340,5,0.0532867508525556,1
33,341,5,0.0525467743117291,1
33,342,5,0.0574040064510565,1
33,343,5,0.0568932376194207,1
33,344,5,0.0456621842239783,1
34,340,5,0.0435662121073316,1
34,341,5,0.0475293892803221,1
34,342,5,0.05460501552944,1
34,343,5,0.0555532000214193,1
34,344,5,0.0473875165586661,1
35,343,5,0.0415214958367709,1
35,344,5,0.0423463797411982,1
35,345,5,0.0411158123030813,1
36,349,5,0.0463396751304991,1
36,350,5,0.045704059385153,1
37,349,5,0.0465365938193495,1
37,350,5,0.0478976960562065,1
37,351,5,0.0425664716954837,1
38,347,5,0.0411740969044324,1
38,349,5,0.0420664838930774,1
38,350,5,0.0443255231318715,1
38,351,5,0.0441185614330944,1
38,352,5,0.0411357171973182,1
39,347,5,0.0452175451659163,1
39,348,5,0.0487472346714094,1
39,349,5,0.0477444800048998,1
39,350,5,0.0478101664262184,1
39,351,5,0.0478217854993448,1
39,352,5,0.0452462603345411,1
40,347,5,0.0497145427844442,1
40,348,5,0.0579894476972803,1
40,349,5,0.0558347773640688,1
40,350,5,0.0515684256461935,1
40,351,5,0.0494576093391006,1
40,352,5,0.0472747050366633,1
40,353,5,0.0445187409107381,1
40,354,5,0.043826305789177,1
40,355,5,0.0430102186423005,1
40,356,5,0.0434080678172371,1
41,347,5,0.0477852413787018,1
41,348,5,0.0578159239499926,1
41,349,5,0.055639518542808,1
41,350,5,0.0488870366136296,1
41,351,5,0.046500720133824,1
41,352,5,0.0444336578282556,1
41,353,5,0.0423769115727223,1
41,354,5,0.0436391814004516,1
41,355,5,0.045207353470782,1
41,356,5,0.0448905782844595,1
42,348,5,0.0481293097623917,1
42,349,5,0.0479787916717598,1
42,350,5,0.0429620932956748,1
42,351,5,0.041883714629249,1
42,355,5,0.043932202097346,1
42,356,5,0.0442094675689772,1
42,359,5,0.0416776017878385,1
43,356,5,0.0417036298092582,1
43,358,5,0.0426566560322681,1
43,359,5,0.0514294563411354,1
43,360,5,0.0505436926026438,1
44,358,5,0.0410671057324625,1
44,359,5,0.0479556454399988,1
44,360,5,0.0488127913310923,1
44,361,5,0.0438688270551626,1
45,360,5,0.0424437982891707,1
45,361,5,0.0450700007794349,1
46,360,5,0.042060501341,1
46,361,5,0.0458722250582349,1
46,362,5,0.041780418960528,1
47,359,5,0.0425310927261942,1
47,360,5,0.0451692792441852,1
47,361,5,0.0440333945462223,1
48,360,5,0.0434353934550134,1
48,361,5,0.0412083918233906,1
65,382,5,0.0410779624559794,1
66,382,5,0.0409870346931574,1
67,330,5,0.0487398652918508,1
67,331,5,0.048173980205468,1
68,330,5,0.0431382852665957,1
68,331,5,0.0416030537281513,1
29,336,6,0.0437792834164543,1
30,332,6,0.0410644212886247,1
30,335,6,0.0523851507877786,1
30,336,6,0.0614059309891288,1
30,337,6,0.0503924608230158,1
30,339,6,0.0451137250439178,1
30,340,6,0.042796917546948,1
31,331,6,0.0421377446579946,1
31,332,6,0.0456654607052787,1
31,333,6,0.0431074912084329,1
31,334,6,0.0426770610494758,1
31,335,6,0.0528315686615961,1
31,336,6,0.0623859935896022,1
31,337,6,0.0566086433187421,1
31,338,6,0.0562975397972448,1
31,339,6,0.0698881138947289,1
31,340,6,0.0624539400260752,1
31,341,6,0.0466250642211962,1
32,331,6,0.0419334782165249,1
32,332,6,0.0419616364914634,1
32,335,6,0.0430799006406505,1
32,336,6,0.0518101715734299,1
32,337,6,0.055485561768831,1
32,338,6,0.0602788214217775,1
32,339,6,0.0757888404474285,1
32,340,6,0.0705330724778425,1
32,341,6,0.0574912116769555,1
32,342,6,0.0502160498793347,1
32,343,6,0.0466081681748862,1
33,330,6,0.0414788204788429,1
33,336,6,0.0438471379384354,1
33,337,6,0.0496842055953736,1
33,338,6,0.0504826073126564,1
33,339,6,0.0582555834052862,1
33,340,6,0.0587719860546035,1
33,341,6,0.0576046341599928,1
33,342,6,0.0593586059690179,1
33,343,6,0.0582451646272895,1
33,344,6,0.0462589309527091,1
34,339,6,0.0411503748554131,1
34,340,6,0.0450676218161144,1
34,341,6,0.0487941164690267,1
34,342,6,0.0547225903848185,1
34,343,6,0.0557922047341024,1
34,344,6,0.0468874584687072,1
36,349,6,0.0416141618648373,1
36,350,6,0.0447376271631589,1
37,349,6,0.0445587561551351,1
37,350,6,0.048517032123012,1
37,351,6,0.0453455009521476,1
38,349,6,0.0422121359223721,1
38,350,6,0.0445574017680628,1
38,351,6,0.0469738148372396,1
38,352,6,0.0446400031592633,1
39,347,6,0.0428279657216473,1
39,348,6,0.0464188783888657,1
39,349,6,0.0462719828105626,1
39,350,6,0.0459266168105161,1
39,351,6,0.0501139382855391,1
39,352,6,0.0498506086729044,1
39,353,6,0.0411277476701947,1
40,347,6,0.0456839084844819,1
40,348,6,0.0571519661007243,1
40,349,6,0.0567976465478171,1
40,350,6,0.0506042696595582,1
40,351,6,0.0506245503218651,1
40,352,6,0.0496086302560707,1
40,353,6,0.0452623075234845,1
40,354,6,0.0440028600113308,1
40,355,6,0.042467428423698,1
40,356,6,0.041723745566153,1
41,347,6,0.0451212079649076,1
41,348,6,0.0622135349690739,1
41,349,6,0.0608974924602002,1
41,350,6,0.049928735991042,1
41,351,6,0.0466426144824193,1
41,352,6,0.0447821056671491,1
41,353,6,0.0427803107609508,1
41,354,6,0.0448545559137265,1
41,355,6,0.0457883774146586,1
41,356,6,0.0458502250542555,1
41,357,6,0.0453580824240719,1
41,358,6,0.041282188346938,1
42,348,6,0.0530731686069924,1
42,349,6,0.0524175317226108,1
42,350,6,0.0433281779035485,1
42,354,6,0.041252627024314,1
42,355,6,0.0445656281150903,1
42,356,6,0.0455210522249925,1
42,357,6,0.044680907811538,1
42,358,6,0.0443522540288176,1
42,359,6,0.0438590760089162,1
43,356,6,0.0412155692638631,1
43,357,6,0.0411272853943677,1
43,358,6,0.0454886226295469,1
43,359,6,0.0510120239726836,1
43,360,6,0.0465421195023347,1
44,358,6,0.0427857120890352,1
44,359,6,0.0471935391335573,1
44,360,6,0.0458781995002101,1
44,361,6,0.0421452113587799,1
45,361,6,0.0433403917175051,1
45,362,6,0.0413594857312808,1
46,360,6,0.0422294672108351,1
46,361,6,0.0445278107083973,1
46,362,6,0.0417109180877945,1
47,359,6,0.0464401106365007,1
47,360,6,0.0509376273015713,1
47,361,6,0.0464413974393877,1
48,359,6,0.0461393772323867,1
48,360,6,0.0495686961126961,1
48,361,6,0.0440250114038851,1
48,364,6,0.0431493041921573,1
48,365,6,0.0427003181193006,1
49,364,6,0.0414493267404041,1
49,365,6,0.0427814732089369,1
65,382,6,0.0411777599672724,1
67,330,6,0.043191674069568,1
67,331,6,0.045046941055431,1
29,336,7,0.0439154087789975,1
30,332,7,0.0420029655724214,1
30,334,7,0.0418642071300212,1
30,335,7,0.0548199981193214,1
30,336,7,0.0642209258458101,1
30,337,7,0.0539929298940271,1
30,338,7,0.0429779134017558,1
30,339,7,0.045015868550425,1
30,340,7,0.042945727109377,1
31,331,7,0.0429418342603072,1
31,332,7,0.0463582851117468,1
31,333,7,0.0454062456178414,1
31,334,7,0.0466719135784046,1
31,335,7,0.0569265268857026,1
31,336,7,0.0665838744177271,1
31,337,7,0.0620585563222161,1
31,338,7,0.0583062066633984,1
31,339,7,0.0677325244165982,1
31,340,7,0.0627620590299522,1
31,341,7,0.0493056368368023,1
31,342,7,0.0417535907423551,1
32,331,7,0.0442421026203459,1
32,332,7,0.0436781017810477,1
32,333,7,0.0428529691668187,1
32,334,7,0.0424084301333508,1
32,335,7,0.0470557647168943,1
32,336,7,0.0567726728396872,1
32,337,7,0.0633886347146806,1
32,338,7,0.0633914516235214,1
32,339,7,0.0726668295607733,1
32,340,7,0.0695377358515049,1
32,341,7,0.0593310532483793,1
32,342,7,0.0538635142893946,1
32,343,7,0.0489057060689604,1
33,330,7,0.0426697484406328,1
33,331,7,0.0434017040903549,1
33,336,7,0.0482523075727939,1
33,337,7,0.0583563757557858,1
33,338,7,0.0561564943060162,1
33,339,7,0.0594239301391036,1
33,340,7,0.0607814477107755,1
33,341,7,0.0598908773850297,1
33,342,7,0.0610468697297852,1
33,343,7,0.0577262154058723,1
33,344,7,0.0468073252519517,1
34,330,7,0.0413086624239802,1
34,339,7,0.0419847502828155,1
34,340,7,0.0460714848632619,1
34,341,7,0.0488845278886735,1
34,342,7,0.0535373692316303,1
34,343,7,0.0533110487188331,1
34,344,7,0.0460932902247878,1
36,350,7,0.0430652700162297,1
36,351,7,0.0422958267706386,1
37,349,7,0.0417211178930309,1
37,350,7,0.0460339134630033,1
37,351,7,0.0457237561200994,1
38,349,7,0.0422184996492543,1
38,350,7,0.04438343466852,1
38,351,7,0.0486937404371081,1
38,352,7,0.0488290007220802,1
39,348,7,0.0444351176466568,1
39,349,7,0.0454580151037353,1
39,350,7,0.0459402634091998,1
39,351,7,0.0521503525147848,1
39,352,7,0.0547665525456335,1
39,353,7,0.0443739999162605,1
40,348,7,0.0523897465123749,1
40,349,7,0.0530730983194398,1
40,350,7,0.0485040938065896,1
40,351,7,0.0497712756529022,1
40,352,7,0.050920769102405,1
40,353,7,0.0454846919333333,1
40,354,7,0.0422527621278036,1
40,357,7,0.0441928445627755,1
40,358,7,0.0412439356980921,1
41,347,7,0.0418411771430588,1
41,348,7,0.0599098063636317,1
41,349,7,0.0593148492641261,1
41,350,7,0.0485166103976961,1
41,351,7,0.0452670600433906,1
41,352,7,0.0453246823197263,1
41,353,7,0.0442124710101692,1
41,354,7,0.0445949758716889,1
41,355,7,0.0439040762628164,1
41,356,7,0.0456037428273175,1
41,357,7,0.051182417220511,1
41,358,7,0.0486442525933079,1
42,348,7,0.0522492254744237,1
42,349,7,0.0519534121989952,1
42,350,7,0.0417117318013848,1
42,354,7,0.0410102052552251,1
42,355,7,0.0427574186457263,1
42,356,7,0.0454719536660993,1
42,357,7,0.0508083198316351,1
42,358,7,0.0509634823074768,1
42,359,7,0.0454530355009669,1
43,357,7,0.044749705808745,1
43,358,7,0.047993260094136,1
43,359,7,0.0489204826752212,1
43,360,7,0.0431485337324455,1
44,357,7,0.0415632655666167,1
44,358,7,0.0444548846691558,1
44,359,7,0.045959576265974,1
44,360,7,0.0442896602598157,1
44,361,7,0.0431745996010089,1
45,360,7,0.0412472635433733,1
45,361,7,0.044366927907117,1
45,362,7,0.0435907289463693,1
46,360,7,0.0447731764445952,1
46,361,7,0.0438790052334598,1
46,362,7,0.0426437447495198,1
46,363,7,0.0417937330450203,1
47,359,7,0.0507658012690169,1
47,360,7,0.0564718313008768,1
47,361,7,0.0482133628618911,1
47,362,7,0.0434793448023588,1
47,363,7,0.0451064286552793,1
47,364,7,0.0462130602145029,1
48,359,7,0.0493932800082217,1
48,360,7,0.0539137644828043,1
48,361,7,0.0462595527272133,1
48,362,7,0.0425893340736667,1
48,363,7,0.0437862121471251,1
48,364,7,0.0450115080187933,1
48,365,7,0.0437895399924063,1
49,364,7,0.0416347453042941,1
49,365,7,0.0423301919771495,1
29,336,8,0.0437505817646665,1
30,332,8,0.0419799166618871,1
30,334,8,0.0422174399292297,1
30,335,8,0.0539473186790923,1
30,336,8,0.0614510555979299,1
30,337,8,0.0536570202731794,1
30,338,8,0.0430131923464511,1
30,339,8,0.042232489575599,1
30,340,8,0.0413119551254851,1
31,331,8,0.041935703087903,1
31,332,8,0.0470652967903805,1
31,333,8,0.0472152093267127,1
31,334,8,0.0500545236766108,1
31,335,8,0.0587873519949597,1
31,336,8,0.0656525427181793,1
31,337,8,0.0627551708497925,1
31,338,8,0.056449036506879,1
31,339,8,0.0582138488192167,1
31,340,8,0.0566911176516743,1
31,341,8,0.0478771720908328,1
31,342,8,0.0428409824357245,1
32,331,8,0.0436596323749052,1
32,332,8,0.0443957160666618,1
32,333,8,0.0445689748839434,1
32,334,8,0.0467714569731611,1
32,335,8,0.0511261493312475,1
32,336,8,0.0594177502412053,1
32,337,8,0.0673597084238745,1
32,338,8,0.064204510998899,1
32,339,8,0.0636482012398811,1
32,340,8,0.0631503274707891,1
32,341,8,0.0562171740908921,1
32,342,8,0.0536467366635533,1
32,343,8,0.0487403032373711,1
32,344,8,0.0419432752200173,1
33,331,8,0.0454187135483345,1
33,332,8,0.0414605727488281,1
33,335,8,0.041625445720405,1
33,336,8,0.0523061367651307,1
33,337,8,0.0646407966516654,1
33,338,8,0.0607412053835161,1
33,339,8,0.0561108182102635,1
33,340,8,0.0575967349204219,1
33,341,8,0.0563014867136629,1
33,342,8,0.0578695695728688,1
33,343,8,0.0538927647247665,1
33,344,8,0.046293025822479,1
34,331,8,0.0443642056161355,1
34,337,8,0.0440080207397157,1
34,338,8,0.042763720195158,1
34,340,8,0.0440471817200112,1
34,341,8,0.0453233063057148,1
34,342,8,0.0492780246420806,1
34,343,8,0.0484221114865259,1
34,344,8,0.0439806734750002,1
34,352,8,0.0451011489787283,1
37,351,8,0.0415850438944685,1
38,348,8,0.0412540057416929,1
38,349,8,0.0434521272992789,1
38,350,8,0.0423865139337612,1
38,351,8,0.0457281572022422,1
38,352,8,0.0488259513236422,1
39,348,8,0.0431892085984904,1
39,349,8,0.0453742701881206,1
39,350,8,0.0449391686102797,1
39,351,8,0.0501185069764613,1
39,352,8,0.0548151861253323,1
39,353,8,0.0449884834385657,1
40,348,8,0.0453612399572063,1
40,349,8,0.046990429733339,1
40,350,8,0.0449309557800893,1
40,351,8,0.0477449720177683,1
40,352,8,0.0509433368135404,1
40,353,8,0.0448340535752921,1
40,357,8,0.0490945308757864,1
40,358,8,0.0462380231091632,1
41,348,8,0.0505152639909644,1
41,349,8,0.0511242353471215,1
41,350,8,0.0442080618179242,1
41,351,8,0.0434876387335714,1
41,352,8,0.0457383705243157,1
41,353,8,0.0444216035129762,1
41,354,8,0.0410892760485886,1
41,356,8,0.0453038366536308,1
41,357,8,0.0572340619622191,1
41,358,8,0.0556250609339014,1
42,348,8,0.0443482151979077,1
42,349,8,0.045520111453134,1
42,356,8,0.0434453472538156,1
42,357,8,0.0541225725815221,1
42,358,8,0.0548924267389595,1
42,359,8,0.043658323945079,1
43,357,8,0.0447423418359213,1
43,358,8,0.0474510619129962,1
43,359,8,0.0439971640161987,1
44,358,8,0.0436384920417621,1
44,359,8,0.0431727018370874,1
45,359,8,0.0409992728374207,1
45,360,8,0.0413110873445466,1
45,361,8,0.0419970992651426,1
45,362,8,0.0418146435919336,1
45,363,8,0.0417445371649003,1
46,359,8,0.0418376762822634,1
46,360,8,0.0454556848010283,1
46,361,8,0.0422807095400841,1
46,362,8,0.043163861825658,1
46,363,8,0.0496882444262836,1
46,364,8,0.0502232354299094,1
47,359,8,0.0489757232848691,1
47,360,8,0.0551607900217108,1
47,361,8,0.0473349036221403,1
47,362,8,0.04617441828075,1
47,363,8,0.0528153971177518,1
47,364,8,0.0539272488794434,1
47,365,8,0.0446213904746482,1
48,359,8,0.0449873615410907,1
48,360,8,0.0505183728634855,1
48,361,8,0.0448478542659181,1
48,362,8,0.0450145628239661,1
48,363,8,0.04748264805781,1
48,364,8,0.0463052126027615,1
29,336,9,0.0410061934579893,1
30,335,9,0.0479098017354667,1
30,336,9,0.0530131214100903,1
30,337,9,0.0484484422850955,1
31,332,9,0.0470860099914729,1
31,333,9,0.045841687819976,1
31,334,9,0.048677774349187,1
31,335,9,0.0540774263457817,1
31,336,9,0.0585248171723434,1
31,337,9,0.0572130838311206,1
31,338,9,0.0511531397514649,1
31,339,9,0.0471909222739048,1
31,340,9,0.0477261890210064,1
31,341,9,0.0441232544789175,1
31,342,9,0.0410021140765682,1
32,331,9,0.042364105721303,1
32,332,9,0.0443235577837647,1
32,333,9,0.0430967642465516,1
32,334,9,0.047174231683518,1
32,335,9,0.0511640992029435,1
32,336,9,0.0581708274302603,1
32,337,9,0.0651001258082312,1
32,338,9,0.0608982602165445,1
32,339,9,0.0531993509842031,1
32,340,9,0.053650932289773,1
32,341,9,0.051177599819787,1
32,342,9,0.0497854899587419,1
32,343,9,0.0479699895074741,1
32,344,9,0.0435615406884478,1
33,331,9,0.0464298810942228,1
33,332,9,0.0416783614340806,1
33,335,9,0.042969968204939,1
33,336,9,0.0526889444038002,1
33,337,9,0.063646708981071,1
33,338,9,0.0603317857960664,1
33,339,9,0.0507354370462722,1
33,340,9,0.0516649953367994,1
33,341,9,0.0517828729693277,1
33,342,9,0.0522673542562725,1
33,343,9,0.0507849302968073,1
33,344,9,0.0460687220217693,1
34,337,9,0.0449859584934051,1
34,338,9,0.0444992496317149,1
34,341,9,0.0421635564100215,1
34,342,9,0.0446323904766378,1
34,343,9,0.0453544545050082,1
34,344,9,0.0426400789833124,1
34,352,9,0.0412362500245466,1
38,348,9,0.0434506728876125,1
38,349,9,0.0454688285733738,1
38,350,9,0.0417029242303643,1
38,351,9,0.0409965451397044,1
38,352,9,0.0440913709636886,1
39,348,9,0.0417455076738004,1
39,349,9,0.0455693289601932,1
39,350,9,0.0440478954090074,1
39,351,9,0.0450915817614658,1
39,352,9,0.0480228349335971,1
39,353,9,0.0412324301663968,1
40,349,9,0.0410492986513354,1
40,350,9,0.0413809802055545,1
40,351,9,0.0444268372322812,1
40,352,9,0.0471994973553281,1
40,353,9,0.0418407770446822,1
40,357,9,0.0473032634099783,1
40,358,9,0.04395451028521,1
41,352,9,0.0436056082805917,1
41,353,9,0.0420325809623936,1
41,356,9,0.0431501179057475,1
41,357,9,0.0552713901891726,1
41,358,9,0.0532928442426968,1
42,356,9,0.0417270923350061,1
42,357,9,0.0510900647830641,1
42,358,9,0.0506302111732208,1
43,357,9,0.0412947103447793,1
43,358,9,0.0423368855148557,1
45,359,9,0.041179281963124,1
46,359,9,0.0424139774432754,1
46,360,9,0.0434690882264067,1
46,362,9,0.0421452437991889,1
46,363,9,0.0517502271044893,1
46,364,9,0.0546652519620608,1
47,359,9,0.0436722408805036,1
47,360,9,0.0472084617216584,1
47,361,9,0.0431136873265357,1
47,362,9,0.0456880770770275,1
47,363,9,0.0545742295813794,1
47,364,9,0.0554705959268515,1
47,365,9,0.0418375519273625,1
48,360,9,0.0411289074148134,1
48,362,9,0.0445534440381752,1
48,363,9,0.0493614830007499,1
48,364,9,0.0465728405695775,1
30,335,10,0.0432849997192823,1
30,336,10,0.0456913373381234,1
30,337,10,0.0432540731961165,1
31,332,10,0.0450041845964807,1
31,333,10,0.0448303742922476,1
31,334,10,0.0452521050148806,1
31,335,10,0.0476357451609507,1
31,336,10,0.0505796690161308,1
31,337,10,0.0519439828534705,1
31,338,10,0.0471992053916479,1
31,339,10,0.0417458915519725,1
31,340,10,0.0433868382729695,1
31,341,10,0.0451064637990556,1
31,342,10,0.0430977915261673,1
31,343,10,0.0410365387571621,1
32,332,10,0.0427953414837482,1
32,333,10,0.0434132474691939,1
32,334,10,0.0457840844672121,1
32,335,10,0.0491013055145148,1
32,336,10,0.0554506721090427,1
32,337,10,0.0631270676975969,1
32,338,10,0.0581942926593756,1
32,339,10,0.0484701611388642,1
32,340,10,0.0494227034591078,1
32,341,10,0.0522722797916928,1
32,342,10,0.0507406599521076,1
32,343,10,0.0505523650052938,1
32,344,10,0.0471342218458558,1
32,345,10,0.0415974361306741,1
33,335,10,0.04265405539282,1
33,336,10,0.0511606551128636,1
33,337,10,0.0619920913310836,1
33,338,10,0.0595788168714695,1
33,339,10,0.0498930461345004,1
33,340,10,0.0500454403621146,1
33,341,10,0.0520362109360165,1
33,342,10,0.0506719781996992,1
33,343,10,0.0516140260476587,1
33,344,10,0.0486383322186809,1
33,345,10,0.0429722795840742,1
34,337,10,0.045530368029086,1
34,338,10,0.0464240310071484,1
34,339,10,0.0416840060652319,1
34,340,10,0.0416949438897711,1
34,341,10,0.0433731457170399,1
34,342,10,0.0437072008278446,1
34,343,10,0.0457312390410892,1
34,344,10,0.0432872299973953,1
37,348,10,0.0441238492197476,1
37,349,10,0.0463173128752869,1
37,350,10,0.0410294018672007,1
38,348,10,0.0522564596856118,1
38,349,10,0.0581391709978938,1
38,350,10,0.0484190188342094,1
39,348,10,0.0445858357864771,1
39,349,10,0.052723612387461,1
39,350,10,0.0480803950324824,1
39,351,10,0.0424433387167111,1
39,352,10,0.0419963585424723,1
40,351,10,0.04271237243458,1
40,352,10,0.0439355704931383,1
40,357,10,0.0414704643701798,1
41,357,10,0.0489323450514146,1
41,358,10,0.0462951398557933,1
42,357,10,0.0454970571358648,1
42,358,10,0.0439475464107629,1
46,359,10,0.0430188261641327,1
46,360,10,0.0411244522653224,1
46,363,10,0.0485888984422289,1
47,362,10,0.0446633251099059,1
47,363,10,0.0529140592147328,1
47,364,10,0.052177083411731,1
48,362,10,0.0429605631897209,1
48,363,10,0.0486600618859193,1
48,364,10,0.0454399133555606,1
58,335,10,0.0448329668215934,1
58,336,10,0.041036360334913,1
59,334,10,0.0412335872076481,1
59,335,10,0.0503519103118717,1
59,336,10,0.0488442639344749,1
60,335,10,0.046126898488424,1
60,336,10,0.0448036244717296,1
73,345,10,0.0521011782616041,1
74,345,10,0.0551044950987733,1
74,346,10,0.0437755095155505,1
31,333,11,0.0410488607058151,1
31,335,11,0.0415325039488628,1
31,336,11,0.043579612699581,1
31,337,11,0.0455018907567932,1
31,338,11,0.0418646694058483,1
31,340,11,0.0422599693053176,1
31,341,11,0.0476484077338973,1
31,342,11,0.0457977905399788,1
32,333,11,0.0424450634651184,1
32,334,11,0.0420520425043753,1
32,335,11,0.0448638365740437,1
32,336,11,0.049778607185317,1
32,337,11,0.0556626377408949,1
32,338,11,0.050471166661779,1
32,339,11,0.0435863954484117,1
32,340,11,0.0466716810888074,1
32,341,11,0.0534860863518701,1
32,342,11,0.0521144031349719,1
32,343,11,0.0489906404662353,1
32,344,11,0.046879537602197,1
32,345,11,0.0421623723350961,1
33,336,11,0.0454882225311703,1
33,337,11,0.0540945008143408,1
33,338,11,0.0522210131321371,1
33,339,11,0.0462909117891647,1
33,340,11,0.0464917611742286,1
33,341,11,0.0503684927675622,1
33,342,11,0.0494819017986433,1
33,343,11,0.0492958127996358,1
33,344,11,0.0484485341995874,1
33,345,11,0.044013546422701,1
33,346,11,0.0413454714746294,1
34,337,11,0.0412300457963415,1
34,338,11,0.0435506434144197,1
34,339,11,0.0416980608723944,1
34,341,11,0.0426639226838651,1
34,342,11,0.0427203852155821,1
34,343,11,0.0436640253469458,1
34,344,11,0.0428235051654214,1
37,348,11,0.0437268921560562,1
37,349,11,0.0492729206844113,1
37,350,11,0.0428336022426963,1
38,348,11,0.054663181182625,1
38,349,11,0.065651234288353,1
38,350,11,0.0532403448476023,1
39,348,11,0.0427756258252299,1
39,349,11,0.0544282909951394,1
39,350,11,0.0486562231041976,1
39,351,11,0.0419744883001286,1
40,351,11,0.0429287499620447,1
40,352,11,0.0421340518581131,1
47,363,11,0.043676790647854,1
47,364,11,0.0419181987839259,1
58,334,11,0.0414789718674179,1
58,335,11,0.0497028372035606,1
58,336,11,0.0479313746073954,1
59,334,11,0.0425975117600808,1
59,335,11,0.0556836537191372,1
59,336,11,0.0572920600066248,1
60,334,11,0.0415053269962941,1
60,335,11,0.0539199822278464,1
60,336,11,0.0553149900987547,1
73,345,11,0.0519898211512677,1
73,346,11,0.0437917134998037,1
74,345,11,0.059990063935288,1
74,346,11,0.0566713506291752,1
31,336,12,0.042409216813267,1
31,337,12,0.0433091786373938,1
31,340,12,0.0427272625822721,1
31,341,12,0.0492100187315246,1
31,342,12,0.0463883681842809,1
32,333,12,0.0412662925465695,1
32,335,12,0.0417432422519111,1
32,336,12,0.0461200265284688,1
32,337,12,0.0492693738663699,1
32,338,12,0.0446548338328724,1
32,340,12,0.0451019221418075,1
32,341,12,0.0528934054877234,1
32,342,12,0.0514797335682192,1
32,343,12,0.0447660449613687,1
32,344,12,0.0443234929029469,1
32,345,12,0.0426342856669536,1
32,346,12,0.0414440903177317,1
33,336,12,0.0411198781676654,1
33,337,12,0.0466979037526805,1
33,338,12,0.0460712307467254,1
33,339,12,0.0435954057719879,1
33,340,12,0.0435723622681884,1
33,341,12,0.0468914053851252,1
33,342,12,0.0469137838605419,1
33,343,12,0.0440698467523734,1
33,344,12,0.0455995904549763,1
33,345,12,0.045131499684636,1
33,346,12,0.0463165721526166,1
33,347,12,0.0425242477999131,1
34,339,12,0.0416925838500225,1
34,341,12,0.041137920441757,1
34,342,12,0.0414764685491966,1
34,346,12,0.0425691318090147,1
34,347,12,0.041387919749695,1
37,348,12,0.0421547055851225,1
37,349,12,0.0495146449847085,1
37,350,12,0.0430669893579022,1
38,348,12,0.054826497014574,1
38,349,12,0.069357491532837,1
38,350,12,0.0561802893459555,1
39,348,12,0.041678588516943,1
39,349,12,0.0552942877111319,1
39,350,12,0.0488545205104269,1
39,351,12,0.0410648267937362,1
40,351,12,0.0412721074898676,1
58,335,12,0.0494750136184837,1
58,336,12,0.0482627641979342,1
59,334,12,0.0425335581972718,1
59,335,12,0.0562855638796203,1
59,336,12,0.0589601728667209,1
59,337,12,0.0430094779196303,1
60,334,12,0.0420596281533267,1
60,335,12,0.0554247468155846,1
60,336,12,0.057808376148185,1
61,335,12,0.0425402084810994,1
61,336,12,0.0424795881703064,1
74,345,12,0.0500552698060159,1
74,346,12,0.0564893815621,1
31,341,13,0.0439831713864866,1
31,342,13,0.0413904176611815,1
32,336,13,0.0419228837196467,1
32,337,13,0.0434800017206393,1
32,338,13,0.042216715426764,1
32,340,13,0.0422211138055394,1
32,341,13,0.0474023256053359,1
32,342,13,0.0463879572724346,1
32,344,13,0.0413963785863196,1
32,345,13,0.0445494809015527,1
32,346,13,0.0454556361404149,1
33,338,13,0.0414222552191644,1
33,339,13,0.0411110138259293,1
33,341,13,0.0417750608863221,1
33,342,13,0.0426106041684455,1
33,344,13,0.0432458495524564,1
33,345,13,0.0487392867712251,1
33,346,13,0.0517297193593201,1
33,347,13,0.0465488184467757,1
34,345,13,0.0444468394477449,1
34,346,13,0.0466298383680415,1
34,347,13,0.0434670688109517,1
37,349,13,0.0454961379909456,1
37,350,13,0.0416108907902717,1
38,348,13,0.0501649940824369,1
38,349,13,0.0630376511171569,1
38,350,13,0.0546553143834631,1
39,349,13,0.0509647745170986,1
39,350,13,0.0471827743245323,1
59,335,13,0.047932163990679,1
59,336,13,0.0497199495192634,1
60,335,13,0.0491649968506851,1
60,336,13,0.049587241213126,1
61,335,13,0.0450472357224786,1
61,336,13,0.0418829684998439,1
74,346,13,0.0438640637217869,1
31,338,14,0.0416240967400676,1
32,338,14,0.0421813770079856,1
32,345,14,0.0455702805455214,1
32,346,14,0.0491257980232458,1
32,347,14,0.0455876307575562,1
33,344,14,0.0416359564128936,1
33,345,14,0.0532133652408545,1
33,346,14,0.0586395967458204,1
33,347,14,0.0529548584356785,1
33,348,14,0.04227926323852,1
34,345,14,0.048577738941562,1
34,346,14,0.0517825485652386,1
34,347,14,0.0478699108459706,1
34,348,14,0.0428568160586426,1
34,349,14,0.0414019556332857,1
37,349,14,0.0417178062679541,1
38,348,14,0.04314122382697,1
38,349,14,0.051487903144531,1
38,350,14,0.0487287057911839,1
39,349,14,0.0431749077848936,1
39,350,14,0.0439787027201586,1
60,335,14,0.0411702986732219,1
60,383,14,0.049252445379651,1
61,335,14,0.0423698233433743,1
31,338,15,0.0426208931848064,1
32,338,15,0.0410488444856106,1
32,346,15,0.0453376449664553,1
32,347,15,0.0437628847897477,1
33,345,15,0.0494941372395392,1
33,346,15,0.0551006184699079,1
33,347,15,0.0504566549855242,1
34,345,15,0.0464341037541166,1
34,346,15,0.0494703584198043,1
34,347,15,0.0451826500993931,1
60,383,15,0.0526837755653131,1
60,384,15,0.0417190335967581,1
33,345,16,0.041499109251252,1
33,346,16,0.0472669517789325,1
33,347,16,0.0444398701665629,1
34,345,16,0.0411403264387516,1
34,346,16,0.0445009311262436,1
60,383,16,0.0464495616089647,1
36,346,18,0.0415644199045006,1
36,345,20,0.0413295026833409,1
36,345,21,0.0425858494330757,1
46,374,21,0.0562524746625268,1
56,338,21,0.0434516515066148,1
56,339,21,0.0510471785624781,1
57,338,21,0.0440977319872034,1
57,339,21,0.0509617629658043,1
36,345,22,0.0419264954185059,1
36,346,22,0.0411220435649605,1
43,355,22,0.042920172177254,1
45,374,22,0.0577656683498481,1
46,373,22,0.0455707617449203,1
46,374,22,0.0616785115250392,1
46,375,22,0.0581164735251228,1
47,374,22,0.0448250162180418,1
47,375,22,0.0430261036291994,1
56,336,22,0.0415166811394144,1
56,337,22,0.0412574498317727,1
56,338,22,0.0484448359929711,1
56,339,22,0.0634954015071554,1
56,340,22,0.0543836800261461,1
57,336,22,0.0556210004760522,1
57,337,22,0.0541784944397572,1
57,338,22,0.0545988140046024,1
57,339,22,0.0674378195218076,1
57,340,22,0.0589522628136804,1
58,336,22,0.0548059730492003,1
58,337,22,0.0503238006975466,1
58,339,22,0.0416699323344975,1
37,349,23,0.0420196264257668,1
37,350,23,0.0449505065331956,1
42,355,23,0.0455943134817928,1
42,356,23,0.042471975487681,1
43,355,23,0.0473403319838988,1
43,356,23,0.0444625730460688,1
45,373,23,0.0490944389612944,1
45,374,23,0.0543799385656512,1
46,372,23,0.0414594968085991,1
46,373,23,0.056553348641746,1
46,374,23,0.0662349832265784,1
46,375,23,0.0581393926740214,1
47,373,23,0.051778736817191,1
47,374,23,0.0594299262080181,1
47,375,23,0.0530587704721689,1
48,374,23,0.0440788489658473,1
56,336,23,0.045727119109157,1
56,337,23,0.045245276308804,1
56,338,23,0.0480199261102643,1
56,339,23,0.0662846603060973,1
56,340,23,0.0653310690792988,1
57,335,23,0.0430790517832839,1
57,336,23,0.0701719512525328,1
57,337,23,0.0668044691983508,1
57,338,23,0.0586852512146338,1
57,339,23,0.0741197651885346,1
57,340,23,0.0734922595454173,1
57,341,23,0.0461751427832158,1
58,335,23,0.0439596196496142,1
58,336,23,0.0708881327534199,1
58,337,23,0.0649689692349868,1
58,338,23,0.045962777052987,1
58,339,23,0.0471265064352688,1
58,340,23,0.0477047567241831,1
59,336,23,0.0470031409668989,1
59,337,23,0.0426505707522291,1
36,348,24,0.0411650433269776,1
36,349,24,0.0440312075219879,1
36,350,24,0.0420473629753893,1
37,348,24,0.0420666001378761,1
37,349,24,0.0460700737054741,1
37,350,24,0.0460170390436325,1
42,355,24,0.0483023631237501,1
42,356,24,0.0461381877507265,1
43,355,24,0.0474290997561606,1
43,356,24,0.0451669300179062,1
45,373,24,0.0480893756190171,1
45,374,24,0.050365627198108,1
46,372,24,0.0439954122341173,1
46,373,24,0.0638321383584305,1
46,374,24,0.0709116033892701,1
46,375,24,0.0577105034344877,1
47,372,24,0.0471888947483476,1
47,373,24,0.0685741637922302,1
47,374,24,0.0758623125668867,1
47,375,24,0.0609588967475419,1
48,372,24,0.0420210429902894,1
48,373,24,0.0547575124850158,1
48,374,24,0.0575854672850587,1
48,375,24,0.0480872507722331,1
49,373,24,0.0412402483049454,1
55,339,24,0.0410747048982509,1
55,340,24,0.0413856272941317,1
56,336,24,0.0454296081189952,1
56,337,24,0.0457833167108678,1
56,338,24,0.0445298868945679,1
56,339,24,0.0597292917082228,1
56,340,24,0.0644393579325061,1
56,341,24,0.0471768755768445,1
57,335,24,0.0425112662296122,1
57,336,24,0.0725522500364846,1
57,337,24,0.0707858859912539,1
57,338,24,0.0572767319134123,1
57,339,24,0.0687538566239465,1
57,340,24,0.0740058344724242,1
57,341,24,0.0559784451216848,1
58,335,24,0.0437793401871699,1
58,336,24,0.0743923835715887,1
58,337,24,0.0717356438430656,1
58,338,24,0.0512533049207256,1
58,339,24,0.0501152521221002,1
58,340,24,0.0521680703847874,1
58,341,24,0.0454009253907793,1
59,336,24,0.0469531232630864,1
59,337,24,0.0460759562329574,1
36,348,25,0.0466578939150184,1
36,349,25,0.0475780390802253,1
37,348,25,0.0482484741978071,1
37,349,25,0.0484882412600997,1
37,350,25,0.0427963903903031,1
38,348,25,0.0464671118701878,1
38,349,25,0.0449504713894193,1
42,355,25,0.0417064548282012,1
45,373,25,0.0447844386732236,1
45,374,25,0.0487092253256303,1
46,372,25,0.0426930055104576,1
46,373,25,0.0669148368762153,1
46,374,25,0.0763425820074073,1
46,375,25,0.059720435476589,1
47,372,25,0.0497229502570881,1
47,373,25,0.0796539097137571,1
47,374,25,0.0876688804434249,1
47,375,25,0.0666914468136901,1
47,376,25,0.042008480441937,1
48,372,25,0.046073458321471,1
48,373,25,0.0661692859917902,1
48,374,25,0.0676990891684762,1
48,375,25,0.0542521936420778,1
48,376,25,0.042641930789988,1
49,373,25,0.0468207663947122,1
49,374,25,0.044599774348841,1
55,339,25,0.043080649473423,1
55,340,25,0.0433876411730902,1
56,337,25,0.0425982714063229,1
56,338,25,0.0426014748967032,1
56,339,25,0.0521904596736737,1
56,340,25,0.0571126645453234,1
56,341,25,0.0501926711579764,1
57,336,25,0.0577139421178327,1
57,337,25,0.0614237029264796,1
57,338,25,0.0527688072838147,1
57,339,25,0.0580492299641763,1
57,340,25,0.0634008809690461,1
57,341,25,0.0608557038067825,1
57,342,25,0.0537249937433265,1
58,336,25,0.0605388583329073,1
58,337,25,0.0653581730409475,1
58,338,25,0.05452068127973,1
58,339,25,0.0511701277122669,1
58,340,25,0.0510077742791157,1
58,341,25,0.0517550607254177,1
58,342,25,0.0524893493812143,1
58,343,25,0.0421165043002574,1
59,337,25,0.0480514419675255,1
59,338,25,0.0475980818462001,1
59,339,25,0.0464627486351887,1
59,340,25,0.043329897245221,1
59,341,25,0.0432747593635347,1
59,342,25,0.0463412809307404,1
59,343,25,0.042931147848937,1
60,342,25,0.0418411528127521,1
75,353,25,0.0412915284813382,1
36,348,26,0.0509869042827136,1
36,349,26,0.0512448109403246,1
37,348,26,0.0539010262155702,1
37,349,26,0.0534792468323238,1
37,350,26,0.0418629149203995,1
38,348,26,0.0521801814707824,1
38,349,26,0.0495556226279032,1
45,374,26,0.0470022921095323,1
46,373,26,0.065578621839731,1
46,374,26,0.0782808423727451,1
46,375,26,0.0597829805849776,1
47,372,26,0.048185015351234,1
47,373,26,0.0812677659899424,1
47,374,26,0.0904635838243297,1
47,375,26,0.0663173602382839,1
47,376,26,0.0418485519293522,1
48,372,26,0.0452845373136936,1
48,373,26,0.0690725079472514,1
48,374,26,0.0713586592577963,1
48,375,26,0.0568441336537927,1
48,376,26,0.0464344551918798,1
49,373,26,0.0469241377577207,1
49,374,26,0.0482094321656776,1
49,375,26,0.0443290456196062,1
49,376,26,0.0421786357934323,1
50,374,26,0.0476110850434403,1
50,375,26,0.0429291284334821,1
51,374,26,0.0501074393902864,1
51,375,26,0.0454918017896206,1
55,339,26,0.0466868415732405,1
55,340,26,0.0461169771300308,1
56,339,26,0.0473048529900152,1
56,340,26,0.0500536153451612,1
56,341,26,0.0480832497884669,1
56,342,26,0.0447392059297261,1
57,337,26,0.0474267207928401,1
57,338,26,0.0465105279507861,1
57,339,26,0.047091389692618,1
57,340,26,0.0502482686121223,1
57,341,26,0.0574577548018942,1
57,342,26,0.061081207902622,1
57,343,26,0.0453500939733765,1
58,336,26,0.0433553710763217,1
58,337,26,0.0540728360279202,1
58,338,26,0.054253593986396,1
58,339,26,0.0486215767474762,1
58,340,26,0.0457370404675502,1
58,341,26,0.0515684472731328,1
58,342,26,0.0600569614652061,1
58,343,26,0.049593042639587,1
59,337,26,0.0488742226521081,1
59,338,26,0.0545235684761235,1
59,339,26,0.0510184579871185,1
59,341,26,0.0425403193191632,1
59,342,26,0.0492915036319849,1
59,343,26,0.0480615579683722,1
60,343,26,0.042812018557298,1
67,349,26,0.0481220971781429,1
70,350,26,0.0494234604019825,1
70,351,26,0.0503986839747927,1
71,350,26,0.0461143656771131,1
71,351,26,0.0478577348791577,1
74,353,26,0.0465915803124608,1
74,354,26,0.0454393402416698,1
75,353,26,0.0574595606513238,1
75,354,26,0.0602879588036219,1
76,354,26,0.051352399556492,1
36,348,27,0.048044040147558,1
36,349,27,0.0497706646918676,1
37,348,27,0.0511146600197566,1
37,349,27,0.0534079860674067,1
38,348,27,0.0466734761247674,1
38,349,27,0.0468509413817382,1
45,374,27,0.0410996515727067,1
46,373,27,0.0557152506774206,1
46,374,27,0.0666942799427353,1
46,375,27,0.0520092313292687,1
47,372,27,0.0420727286717936,1
47,373,27,0.0684545019372115,1
47,374,27,0.0766801460891097,1
47,375,27,0.0575398722903283,1
48,373,27,0.0605662055976228,1
48,374,27,0.0654636908776792,1
48,375,27,0.0545182536557962,1
48,376,27,0.0431363577656327,1
49,373,27,0.0443771033820467,1
49,374,27,0.0507149563347771,1
49,375,27,0.0473800660780852,1
50,374,27,0.0510898106665276,1
50,375,27,0.0455633653316876,1
51,374,27,0.0529818110087523,1
51,375,27,0.0468593867015258,1
52,374,27,0.0415255346676809,1
55,339,27,0.045189440958326,1
55,340,27,0.0466462640284223,1
56,340,27,0.0446621653652872,1
56,341,27,0.0429760291546713,1
56,342,27,0.0426653095113462,1
57,341,27,0.0485511215860471,1
57,342,27,0.0565986246391221,1
57,343,27,0.0480880077151078,1
58,337,27,0.0415440581411715,1
58,338,27,0.0470572894161133,1
58,339,27,0.0425879202125115,1
58,341,27,0.048439694188158,1
58,342,27,0.059956899023907,1
58,343,27,0.0552753479190602,1
59,338,27,0.05118169812478,1
59,341,27,0.0419480358500257,1
59,342,27,0.0502371253316599,1
59,343,27,0.0524219598384277,1
59,344,27,0.0414962166481237,1
60,343,27,0.0442060613260411,1
67,349,27,0.048618559789447,1
69,350,27,0.050122853991256,1
69,351,27,0.0555767409448222,1
69,352,27,0.04671272361282,1
70,349,27,0.0436281705849923,1
70,350,27,0.0647757541594876,1
70,351,27,0.0723313632921807,1
70,352,27,0.0538050620792641,1
71,350,27,0.0639276807694207,1
71,351,27,0.0719250958311306,1
71,352,27,0.0520063170992011,1
72,350,27,0.0479220696167715,1
72,351,27,0.0535400023114873,1
72,352,27,0.0421478930992503,1
74,353,27,0.0484334061555633,1
74,354,27,0.0502094050022419,1
75,353,27,0.0616731264171593,1
75,354,27,0.0669707641411852,1
76,353,27,0.0474566741037385,1
76,354,27,0.0530925841917282,1
36,348,28,0.0414793989994686,1
36,349,28,0.0469616172434874,1
37,348,28,0.046215958224366,1
37,349,28,0.051356438387402,1
38,348,28,0.0412082079944068,1
38,349,28,0.0433924937175904,1
46,373,28,0.0434655224847934,1
46,374,28,0.0503916281858536,1
47,373,28,0.0507332851658142,1
47,374,28,0.0561705572232809,1
47,375,28,0.0451389420551146,1
48,373,28,0.046306034426454,1
48,374,28,0.0521782242327778,1
48,375,28,0.0466583697076825,1
49,374,28,0.047081133116666,1
49,375,28,0.0459002968254162,1
50,374,28,0.0458213530903209,1
50,375,28,0.0427091635374648,1
51,374,28,0.0464145692212148,1
51,375,28,0.0412441681876893,1
52,374,28,0.0415082628533009,1
55,340,28,0.045797514796503,1
56,340,28,0.0428747393845682,1
56,342,28,0.0410895058348185,1
57,341,28,0.043501469161239,1
57,342,28,0.0504547247811938,1
57,343,28,0.0490572514392079,1
58,338,28,0.0427153650623025,1
58,341,28,0.0459432857739637,1
58,342,28,0.0566649923090279,1
58,343,28,0.0592095963574006,1
58,344,28,0.054573943024434,1
58,345,28,0.0426176410338127,1
59,341,28,0.041316534629877,1
59,342,28,0.0507462721428499,1
59,343,28,0.0587978680941831,1
59,344,28,0.0622576322982594,1
59,345,28,0.0511305395999207,1
60,343,28,0.04437072343496,1
60,344,28,0.0508271460822756,1
60,345,28,0.0442906037350416,1
67,349,28,0.0438752529594953,1
68,349,28,0.0451674328442444,1
68,350,28,0.0480906137612907,1
68,351,28,0.0467628981119423,1
69,349,28,0.0483137172668705,1
69,350,28,0.0605972240352806,1
69,351,28,0.0653010292606433,1
69,352,28,0.0531920302652579,1
70,349,28,0.0514330085659116,1
70,350,28,0.0718254659286171,1
70,351,28,0.0827096502517332,1
70,352,28,0.0637673602685616,1
70,353,28,0.041435201645689,1
71,349,28,0.049324787491532,1
71,350,28,0.0750791199946504,1
71,351,28,0.0876100984224705,1
71,352,28,0.0647257202354707,1
71,353,28,0.0418357974419137,1
72,350,28,0.0531898459443909,1
72,351,28,0.0613326805457982,1
72,352,28,0.0471560218006469,1
72,377,28,0.0421784654812855,1
73,354,28,0.041354919743726,1
73,377,28,0.0463099651226676,1
73,378,28,0.0420318861969693,1
74,353,28,0.0504823423826503,1
74,354,28,0.0525839834607549,1
75,353,28,0.0590538229205244,1
75,354,28,0.0628473178313163,1
76,353,28,0.0419613472311505,1
76,354,28,0.0461030439744017,1
36,349,29,0.0418895025388729,1
37,348,29,0.0415454963326334,1
37,349,29,0.0441657784482706,1
52,374,29,0.041331503175224,1
56,341,29,0.042029891111821,1
56,342,29,0.0416404764432024,1
57,341,29,0.0450580464887496,1
57,342,29,0.0483209731049978,1
57,343,29,0.0472600960391818,1
57,344,29,0.0426919295702286,1
58,341,29,0.0456607352190467,1
58,342,29,0.0519858850483193,1
58,343,29,0.0562400337657078,1
58,344,29,0.0653554913004772,1
58,345,29,0.056618186205698,1
59,342,29,0.047407197073408,1
59,343,29,0.0596789171599123,1
59,344,29,0.0819654888981567,1
59,345,29,0.075306235297466,1
59,346,29,0.0460818117267666,1
60,343,29,0.0419969451732002,1
60,344,29,0.061306101037427,1
60,345,29,0.0587035097581183,1
60,346,29,0.0424097899271579,1
68,349,29,0.0452383908320117,1
68,350,29,0.0556762573059045,1
68,351,29,0.054869204812911,1
68,352,29,0.043375278673926,1
69,349,29,0.0512246330059793,1
69,350,29,0.0650046320578543,1
69,351,29,0.0659254206245047,1
69,352,29,0.0524945128129667,1
70,349,29,0.0516573880609087,1
70,350,29,0.0699006142656309,1
70,351,29,0.0771449144209037,1
70,352,29,0.0631718408686348,1
70,353,29,0.0420551784105705,1
71,349,29,0.050593061498278,1
71,350,29,0.0739059666735786,1
71,351,29,0.0843759734826042,1
71,352,29,0.0680254288686939,1
71,353,29,0.0448791781840932,1
72,350,29,0.0511173201332877,1
72,351,29,0.0593481223102035,1
72,352,29,0.0504632187615947,1
72,376,29,0.0448511361539534,1
72,377,29,0.0625360629212441,1
72,378,29,0.0533669651703333,1
73,353,29,0.0420030250465044,1
73,354,29,0.0424112551522939,1
73,376,29,0.051231191375315,1
73,377,29,0.0699738593022267,1
73,378,29,0.0589325822989385,1
74,353,29,0.0498187197509407,1
74,354,29,0.0510161330911462,1
74,377,29,0.0483974946228941,1
75,353,29,0.048574478680466,1
75,354,29,0.05042089484143,1
51,369,30,0.0424114660149518,1
51,370,30,0.0455102928227023,1
56,342,30,0.0470466705889284,1
57,342,30,0.0547899745208703,1
57,343,30,0.0453909337448334,1
58,342,30,0.0511492955630085,1
58,343,30,0.0510324343966261,1
58,344,30,0.0644813087879684,1
58,345,30,0.0602305230596375,1
59,344,30,0.088991432661021,1
59,345,30,0.0886656931083682,1
59,346,30,0.049331216099232,1
60,344,30,0.0657561681977242,1
60,345,30,0.0687562788411455,1
60,346,30,0.0441434215997931,1
68,350,30,0.056295204087803,1
68,351,30,0.0591826654112661,1
68,352,30,0.0457380082730828,1
69,349,30,0.0444556848659091,1
69,350,30,0.0619809210169471,1
69,351,30,0.063474569357897,1
69,352,30,0.0491952745656727,1
70,349,30,0.0444904609842662,1
70,350,30,0.0608998065427028,1
70,351,30,0.064732857125432,1
70,352,30,0.0546615537554445,1
71,349,30,0.0431902358781061,1
71,350,30,0.0602020241604055,1
71,351,30,0.066284341308743,1
71,352,30,0.0586615859363301,1
71,353,30,0.0410057365888971,1
72,350,30,0.0420741344228466,1
72,351,30,0.0488587269501163,1
72,352,30,0.0489998751693065,1
72,353,30,0.041303988301729,1
72,376,30,0.0568236259086234,1
72,377,30,0.0811376366963137,1
73,353,30,0.0448945873783279,1
73,354,30,0.0439432561666838,1
73,376,30,0.0669060617456037,1
73,377,30,0.0924597719465206,1
74,353,30,0.0470997917585271,1
74,354,30,0.049575486971629,1
50,370,31,0.041198884080211,1
51,369,31,0.0448155544321081,1
51,370,31,0.0481218052144627,1
52,369,31,0.0415616786899473,1
57,343,31,0.0422576471127128,1
58,344,31,0.0563486604749605,1
58,345,31,0.0555850240625652,1
59,345,31,0.0839012783856822,1
59,346,31,0.0486937458438429,1
60,345,31,0.0689265098869283,1
60,346,31,0.0451118975675489,1
68,350,31,0.0451733721424433,1
68,351,31,0.0509375353870794,1
69,350,31,0.0498951061004665,1
69,351,31,0.0564448030335156,1
69,352,31,0.0445908045757759,1
70,350,31,0.0469866936795789,1
70,351,31,0.0534341492571968,1
71,350,31,0.0420570356239809,1
71,351,31,0.047756077451087,1
71,352,31,0.0452265176423487,1
72,376,31,0.0619911884063688,1
73,353,31,0.0457977418793655,1
73,354,31,0.0427682321153647,1
74,353,31,0.0427726386042423,1
74,354,31,0.0445687126573046,1
45,350,32,0.0421510911828958,1
46,350,32,0.0418209640649372,1
50,356,32,0.0411639133194004,1
51,355,32,0.046927506153513,1
51,356,32,0.0491030032292481,1
51,368,32,0.042588352751297,1
51,369,32,0.0452799821396085,1
51,370,32,0.0481969858621238,1
51,371,32,0.0427765638937211,1
52,354,32,0.0443761193563096,1
52,355,32,0.0514989653239711,1
52,356,32,0.0464766926042875,1
52,369,32,0.0429316155314989,1
52,370,32,0.0471723339195964,1
52,371,32,0.0451659405854343,1
53,354,32,0.0474243688631938,1
53,355,32,0.0484370719217707,1
53,370,32,0.0437591595494572,1
53,371,32,0.0432698203112774,1
54,354,32,0.0455291190733427,1
54,355,32,0.045393399215911,1
69,351,32,0.0465545441789493,1
49,368,33,0.0414569232028251,1
50,355,33,0.0440722689695724,1
50,356,33,0.0558805670012527,1
50,357,33,0.0489623362094567,1
50,367,33,0.0427104178999429,1
50,368,33,0.0460040304396575,1
50,369,33,0.0419292231162222,1
51,354,33,0.0413334117526152,1
51,355,33,0.0542268955298587,1
51,356,33,0.0654231511800047,1
51,357,33,0.0556631892278465,1
51,358,33,0.0418509606297142,1
51,368,33,0.0433749921169806,1
51,369,33,0.0443956728127833,1
51,370,33,0.0471651267420824,1
51,371,33,0.0446612759574095,1
52,353,33,0.045853561009639,1
52,354,33,0.0493619858270881,1
52,355,33,0.0532720337203777,1
52,356,33,0.054095360485177,1
52,357,33,0.0456477212083369,1
52,369,33,0.0445803614674726,1
52,370,33,0.0552116890232989,1
52,371,33,0.0564021493025269,1
52,372,33,0.0413520406574347,1
53,353,33,0.0501220808281768,1
53,354,33,0.0528034320135969,1
53,355,33,0.0486054160171015,1
53,370,33,0.0494093866712481,1
53,371,33,0.0515583474924905,1
54,353,33,0.0411928880112965,1
54,354,33,0.0452772868823011,1
54,355,33,0.0421712312700974,1
67,374,33,0.042346101294355,1
50,355,34,0.0441538268609527,1
50,356,34,0.0570478594217804,1
50,357,34,0.053018782261446,1
50,358,34,0.0422643649807256,1
50,368,34,0.0433432978374704,1
51,354,34,0.0439850394133667,1
51,355,34,0.0527846273898957,1
51,356,34,0.0721391052087445,1
51,357,34,0.073092307150636,1
51,358,34,0.0585011302671005,1
51,359,34,0.0422098677971154,1
51,370,34,0.0431884219185742,1
51,371,34,0.0411549381396005,1
52,353,34,0.0456850222718546,1
52,354,34,0.0493863377607138,1
52,355,34,0.0489899267772392,1
52,356,34,0.0632414309524928,1
52,357,34,0.0691060351098653,1
52,358,34,0.0590409332647154,1
52,359,34,0.0437964930533839,1
52,369,34,0.0449112536384081,1
52,370,34,0.0587588044351143,1
52,371,34,0.059133593886047,1
53,353,34,0.0503867891581904,1
53,354,34,0.0508883070665505,1
53,355,34,0.0427840981786916,1
53,356,34,0.0434363180066675,1
53,357,34,0.045328429186956,1
53,370,34,0.0498858173300471,1
53,371,34,0.0515238633378136,1
67,374,34,0.0418674673911172,1
50,356,35,0.0489403740526211,1
50,357,35,0.0507808157716098,1
50,358,35,0.0441921903478624,1
51,355,35,0.0476971981089058,1
51,356,35,0.0645301153831813,1
51,357,35,0.0775309336600558,1
51,358,35,0.06487676277938,1
51,359,35,0.0452516265188491,1
52,354,35,0.0417181739259219,1
52,355,35,0.0433487856733119,1
52,356,35,0.0631654663282829,1
52,357,35,0.0835538848600785,1
52,358,35,0.0700028339941228,1
52,359,35,0.0472908062929549,1
52,369,35,0.0419342567863389,1
52,370,35,0.0525960566996062,1
52,371,35,0.0498611896529456,1
53,356,35,0.0439847041958079,1
53,357,35,0.0560444451336229,1
53,358,35,0.0461059906448781,1
53,370,35,0.0446469183730971,1
53,371,35,0.0434315114194132,1
50,357,36,0.0437626009361696,1
51,356,36,0.0491877537975391,1
51,357,36,0.0650834838784576,1
51,358,36,0.0579107472652519,1
52,356,36,0.0525119603462283,1
52,357,36,0.077049982970948,1
52,358,36,0.0672349480179213,1
52,359,36,0.0465840216971836,1
53,357,36,0.0551316747547094,1
53,358,36,0.0464201489715482,1
51,357,37,0.0483544840474073,1
52,357,37,0.0566044693194616,1
52,358,37,0.0535526378507598,1
53,357,37,0.0447878503228945,1
