x,y,z,signal,cytoplasm.p
268,38,14,0.0454250286146034,1
255,22,15,0.100997071106868,1
255,23,15,0.0920766615307011,1
256,23,15,0.0780111598466979,1
256,24,15,0.0513326649744019,1
257,21,15,0.0447094634814857,1
257,22,15,0.0524610289042313,1
257,23,15,0.0451342111621478,1
258,31,15,0.0441730991672158,1
259,32,15,0.042320605836315,1
260,33,15,0.0411134982205787,1
260,34,15,0.0489984045374357,1
261,35,15,0.0518369132838457,1
262,35,15,0.046819847249793,1
263,36,15,0.0673713707508796,1
264,37,15,0.0596174642119572,1
265,37,15,0.0465490455296381,1
266,38,15,0.0534680440777784,1
267,38,15,0.0478819354242085,1
268,38,15,0.0435223553778456,1
268,39,15,0.0510908541663477,1
269,39,15,0.0470546833699304,1
270,39,15,0.0426477024794075,1
254,22,16,0.0896251830828544,1
254,23,16,0.084373437723974,1
255,19,16,0.0411281666921432,1
255,20,16,0.0431827610672185,1
255,21,16,0.0788231757222554,1
255,22,16,0.130128990851545,1
255,23,16,0.117680059624607,1
255,24,16,0.0655160659178728,1
255,25,16,0.043527816180013,1
255,26,16,0.0443531299198583,1
256,21,16,0.0680768252898853,1
256,22,16,0.108325013449794,1
256,23,16,0.0952628071057818,1
256,24,16,0.0550984449625106,1
257,21,16,0.0433498643169084,1
257,22,16,0.0545655139248509,1
257,23,16,0.0483810527423089,1
257,30,16,0.0443219573902582,1
257,31,16,0.0499103368724522,1
258,31,16,0.0442676683659385,1
258,32,16,0.047935483725858,1
259,32,16,0.042162972482661,1
259,33,16,0.0479267734760642,1
259,34,16,0.0563820740961432,1
260,11,16,0.0428095720097923,1
260,34,16,0.0466983200712616,1
260,35,16,0.0539996288384681,1
261,10,16,0.0429659672211727,1
261,11,16,0.0435463720939125,1
261,35,16,0.045852604017576,1
261,36,16,0.0739990706471654,1
262,10,16,0.0423218277583842,1
262,11,16,0.0431020087793262,1
262,36,16,0.0794890367421801,1
263,9,16,0.0420866023533397,1
263,10,16,0.0423547115195546,1
263,11,16,0.0409990214242516,1
263,36,16,0.052645647271368,1
263,37,16,0.0864063267621176,1
264,9,16,0.043611596239404,1
264,10,16,0.0427957848360034,1
264,37,16,0.0518213581077708,1
264,38,16,0.0617250905455067,1
265,8,16,0.0420612285468332,1
265,9,16,0.0439204586693187,1
265,10,16,0.0424559688492487,1
265,37,16,0.0425384999528965,1
265,38,16,0.0572592086858633,1
266,8,16,0.0419387470796063,1
266,9,16,0.0430743587374608,1
266,10,16,0.0414235906826647,1
266,38,16,0.0523242060728965,1
266,39,16,0.0643954228053652,1
267,7,16,0.0416315796610574,1
267,8,16,0.0417672481545084,1
267,9,16,0.0415449880995604,1
267,38,16,0.0458200014066161,1
267,39,16,0.0544582821531815,1
268,7,16,0.042356971534709,1
268,8,16,0.041267490138332,1
268,39,16,0.048803048394948,1
269,7,16,0.0430135329707447,1
269,8,16,0.0412908985967317,1
269,39,16,0.0438552210069901,1
269,40,16,0.0552836310368033,1
270,6,16,0.0431564356753838,1
270,7,16,0.0427881045691927,1
270,8,16,0.041050715215858,1
271,6,16,0.0427164896631448,1
271,7,16,0.0424108009865691,1
271,40,16,0.0462666842104398,1
272,40,16,0.0420268687470571,1
254,19,17,0.0432994059642081,1
254,20,17,0.0453716479217333,1
254,21,17,0.0576410106718564,1
254,22,17,0.084909737157426,1
254,23,17,0.078373794957757,1
254,24,17,0.0544105460914628,1
254,25,17,0.0472499908518047,1
254,26,17,0.0487092902064482,1
255,18,17,0.0415133181503569,1
255,19,17,0.0423988196622097,1
255,20,17,0.0451911359696918,1
255,21,17,0.0780570089579648,1
255,22,17,0.131089897390554,1
255,23,17,0.119069017359252,1
255,24,17,0.0656927471982949,1
255,25,17,0.0420178151696024,1
255,26,17,0.0419859667981498,1
256,21,17,0.0632247457688407,1
256,22,17,0.104613992871934,1
256,23,17,0.0946992090682275,1
256,24,17,0.0543767431853731,1
256,30,17,0.045158144073825,1
257,22,17,0.0519151000760663,1
257,23,17,0.0482960156170724,1
257,30,17,0.0431924742663212,1
257,31,17,0.0496344257878932,1
257,32,17,0.0534632158635849,1
258,31,17,0.0439659293091482,1
258,32,17,0.0492337867377899,1
258,33,17,0.054313165390634,1
259,10,17,0.0416149863918973,1
259,11,17,0.0412425272436717,1
259,32,17,0.0430551134648718,1
259,33,17,0.0488997424404548,1
259,34,17,0.0563401989349684,1
259,35,17,0.0619605376266787,1
260,9,17,0.042193642185923,1
260,10,17,0.0423321248848474,1
260,11,17,0.0426536579978108,1
260,34,17,0.0454434547668672,1
260,35,17,0.0520399253628373,1
260,36,17,0.0572248110389435,1
261,9,17,0.0423248366063111,1
261,10,17,0.043058817078223,1
261,11,17,0.0432708962515064,1
261,35,17,0.0424721295796233,1
261,36,17,0.0575195213404688,1
262,9,17,0.0421772408558489,1
262,10,17,0.0428954093317821,1
262,11,17,0.0427769937291392,1
262,36,17,0.0565878165762185,1
262,37,17,0.085887896587243,1
263,8,17,0.0412976813455624,1
263,9,17,0.0432468119512543,1
263,10,17,0.0427088310232734,1
263,37,17,0.0650552066553532,1
263,38,17,0.0695501659348543,1
264,7,17,0.0410132384334587,1
264,8,17,0.0426532524926994,1
264,9,17,0.0441169204890768,1
264,10,17,0.0425795695105832,1
264,37,17,0.044961557899166,1
264,38,17,0.0572192961694279,1
265,6,17,0.0414574800965115,1
265,7,17,0.0424935483596096,1
265,8,17,0.043492407473682,1
265,9,17,0.0438380816576132,1
265,10,17,0.0414461583938001,1
265,38,17,0.0536943754040453,1
265,39,17,0.067979341861095,1
266,6,17,0.0415942326402937,1
266,7,17,0.0424482534386617,1
266,8,17,0.0430895030016894,1
266,9,17,0.0428855744811459,1
266,38,17,0.0484735565683307,1
266,39,17,0.0609709862065977,1
267,6,17,0.0428217885271163,1
267,7,17,0.0432771031830789,1
267,8,17,0.0427736821040624,1
267,9,17,0.0411169152769844,1
267,38,17,0.0420087156349016,1
267,39,17,0.0521169010464584,1
268,6,17,0.0442075752117905,1
268,7,17,0.0438042382010124,1
268,8,17,0.0415657229275921,1
268,39,17,0.0460900624041007,1
268,40,17,0.0566000303901751,1
269,6,17,0.0444479316081783,1
269,7,17,0.0437079172202082,1
269,39,17,0.0415918374567688,1
269,40,17,0.0541381710114755,1
270,5,17,0.044637321418793,1
270,6,17,0.0435085898309958,1
270,7,17,0.0428028946922906,1
270,40,17,0.0501834797087838,1
271,5,17,0.0434154561203676,1
271,6,17,0.0427920677058151,1
271,7,17,0.0419826443596034,1
271,40,17,0.0449024406606528,1
271,41,17,0.0567240122263143,1
272,6,17,0.0426611841726792,1
273,6,17,0.044150528752713,1
273,41,17,0.0467510573626882,1
274,41,17,0.0410045146668279,1
253,21,18,0.049794816576305,1
253,22,18,0.0530758341272583,1
253,23,18,0.0535465552740882,1
253,24,18,0.0525820586631593,1
254,17,18,0.0422379990383798,1
254,18,18,0.0428628283477615,1
254,19,18,0.0447717815070118,1
254,20,18,0.0474788363097625,1
254,21,18,0.0561190040067798,1
254,22,18,0.0765048813732103,1
254,23,18,0.072588545447326,1
254,24,18,0.0547321548987137,1
254,25,18,0.0489896402202937,1
254,26,18,0.0483558952051951,1
255,16,18,0.0430337298286619,1
255,17,18,0.0438679754944286,1
255,18,18,0.0435390865187436,1
255,19,18,0.0434899149689303,1
255,20,18,0.0468603545070585,1
255,21,18,0.0717107242022839,1
255,22,18,0.115515851811174,1
255,23,18,0.110173965369388,1
255,24,18,0.0663919299249104,1
255,25,18,0.0436728491381708,1
255,26,18,0.0411810526687773,1
255,29,18,0.0445531223374534,1
256,16,18,0.0426946410477404,1
256,17,18,0.0429786054638126,1
256,18,18,0.0415632898969234,1
256,21,18,0.0575628130661662,1
256,22,18,0.0940876100389484,1
256,23,18,0.0917000500101344,1
256,24,18,0.0568382943801879,1
256,29,18,0.041104471676798,1
256,30,18,0.0462918363408188,1
256,31,18,0.051022929356814,1
257,16,18,0.0411539568172308,1
257,22,18,0.0494877843261266,1
257,23,18,0.0495677174936938,1
257,30,18,0.0427161922927298,1
257,31,18,0.0496104090718263,1
257,32,18,0.0548030371921935,1
257,33,18,0.0585075264343916,1
258,10,18,0.0427989558859748,1
258,11,18,0.0411892060248846,1
258,12,18,0.0415921429372861,1
258,13,18,0.0413558686256867,1
258,31,18,0.0435284460646194,1
258,32,18,0.0498601840002692,1
258,33,18,0.055697446299661,1
258,34,18,0.0614904761014968,1
259,9,18,0.0435477399978217,1
259,10,18,0.0430725609981334,1
259,11,18,0.0426800834142397,1
259,12,18,0.0425588238690819,1
259,32,18,0.0430956828995878,1
259,33,18,0.0488548881683946,1
259,34,18,0.0549126587406529,1
259,35,18,0.0599542226901715,1
260,8,18,0.0433108952756989,1
260,9,18,0.0425643306284953,1
260,10,18,0.0430630370347494,1
260,11,18,0.0437739956298011,1
260,12,18,0.0424072703887321,1
260,34,18,0.0443350660188274,1
260,35,18,0.0503799388251745,1
260,36,18,0.0559024696840053,1
261,8,18,0.0422935937891583,1
261,9,18,0.0426039511812504,1
261,10,18,0.0430394447473658,1
261,11,18,0.0435247721883097,1
261,12,18,0.0410490661617382,1
261,35,18,0.0413827941650864,1
261,36,18,0.0509606816188404,1
261,37,18,0.0673402279583209,1
262,8,18,0.0419246760522393,1
262,9,18,0.04334458193699,1
262,10,18,0.0431399992015334,1
262,11,18,0.0422980192016078,1
262,36,18,0.0458893211537332,1
262,37,18,0.0670645493633591,1
262,38,18,0.0738343652843679,1
263,7,18,0.0416649338081571,1
263,8,18,0.0430382444522359,1
263,9,18,0.0440230568692479,1
263,10,18,0.0424344689682402,1
263,37,18,0.0534073156322891,1
263,38,18,0.0647782628844437,1
264,6,18,0.0417460753809564,1
264,7,18,0.0442539704032741,1
264,8,18,0.044850071027194,1
264,9,18,0.0440509258838735,1
264,38,18,0.0554776138686468,1
264,39,18,0.0690804342204963,1
265,6,18,0.0424310816488759,1
265,7,18,0.0454042721596324,1
265,8,18,0.0455677664138304,1
265,9,18,0.0429812926110178,1
265,38,18,0.0515457498003617,1
265,39,18,0.066555586381153,1
266,6,18,0.0419114106283603,1
266,7,18,0.0441633075704582,1
266,8,18,0.0441473658128438,1
266,9,18,0.0411978108433494,1
266,38,18,0.0458425366773426,1
266,39,18,0.0595720584529454,1
267,5,18,0.0440823795636843,1
267,6,18,0.0434354583358312,1
267,7,18,0.0443218708825011,1
267,8,18,0.0428800704251,1
267,39,18,0.0516185244510283,1
267,40,18,0.0623840904189458,1
268,5,18,0.0471517558868745,1
268,6,18,0.0465245908680508,1
268,7,18,0.0452368228789141,1
268,8,18,0.0412135579585104,1
268,39,18,0.0451875837449156,1
268,40,18,0.056763167799875,1
269,6,18,0.0475484318003553,1
269,7,18,0.0450825471075829,1
269,40,18,0.0538084953558743,1
270,7,18,0.0435311223983549,1
270,40,18,0.0490133865996197,1
270,41,18,0.0615381364689281,1
271,5,18,0.0448545099564805,1
271,6,18,0.0439154114823649,1
271,7,18,0.042096372323158,1
271,40,18,0.0434687367886435,1
271,41,18,0.0557984008522052,1
272,5,18,0.0433904013112154,1
272,6,18,0.0430584304966834,1
272,41,18,0.0509641203021854,1
273,5,18,0.043833645431694,1
273,6,18,0.0432055369376444,1
273,41,18,0.0461461518711152,1
274,6,18,0.0419317940186288,1
274,41,18,0.0413813424567874,1
276,42,18,0.0439729715812502,1
277,42,18,0.0467110583384957,1
278,42,18,0.050898758284956,1
279,42,18,0.0522265874757357,1
280,42,18,0.0563093751397641,1
281,42,18,0.0571943008343587,1
282,42,18,0.0530022971269822,1
283,42,18,0.0510705572838364,1
253,19,19,0.047651976178878,1
253,20,19,0.0509167897455781,1
253,21,19,0.051801136919547,1
253,22,19,0.0537154184159616,1
253,23,19,0.0539980284449616,1
253,24,19,0.0541124511739405,1
253,25,19,0.055166796904095,1
253,26,19,0.0546267343832088,1
254,16,19,0.0439249138188097,1
254,17,19,0.0456997664377066,1
254,18,19,0.0464048533187447,1
254,19,19,0.0479066117619234,1
254,20,19,0.0512674002783993,1
254,21,19,0.0564421699536587,1
254,22,19,0.0682555665362735,1
254,23,19,0.0682714785568465,1
254,24,19,0.0559598892077853,1
254,25,19,0.0503807119882536,1
254,26,19,0.0474916773049581,1
254,27,19,0.044266173403761,1
255,15,19,0.041129861703509,1
255,16,19,0.0455862412267077,1
255,17,19,0.0473078915749836,1
255,18,19,0.046157462760357,1
255,19,19,0.0457586890337663,1
255,20,19,0.0497993095729398,1
255,21,19,0.0649712454703457,1
255,22,19,0.0934516915164524,1
255,23,19,0.0957368588012603,1
255,24,19,0.0651011368676424,1
255,25,19,0.045249269182468,1
255,29,19,0.0451194183356824,1
255,30,19,0.0498009910674685,1
256,15,19,0.0409979157469811,1
256,16,19,0.0443270667546624,1
256,17,19,0.0452137847818495,1
256,18,19,0.043207375227483,1
256,19,19,0.0415845924321111,1
256,20,19,0.043074399287972,1
256,21,19,0.0546390401116573,1
256,22,19,0.081434563759115,1
256,23,19,0.0860541915300774,1
256,24,19,0.0581965148273863,1
256,29,19,0.0414016690763402,1
256,30,19,0.0469021107200672,1
256,31,19,0.0516972897638745,1
256,32,19,0.0560860175176478,1
257,11,19,0.0425420197372638,1
257,12,19,0.0410526832673322,1
257,16,19,0.0416642471528351,1
257,22,19,0.0477238641250342,1
257,23,19,0.0503745483105597,1
257,30,19,0.0424251234271051,1
257,31,19,0.0493618344385132,1
257,32,19,0.0560130049706492,1
257,33,19,0.0604319401518574,1
258,10,19,0.0444832511033848,1
258,11,19,0.0431522887097775,1
258,12,19,0.0431201321544402,1
258,13,19,0.0426746172053375,1
258,31,19,0.0439109265958324,1
258,32,19,0.0512321699943173,1
258,33,19,0.0570768124867373,1
258,34,19,0.0624551024740613,1
259,9,19,0.0447875178087031,1
259,10,19,0.0447056382166011,1
259,11,19,0.0440367575352798,1
259,12,19,0.0433379100262231,1
259,32,19,0.0436861713327653,1
259,33,19,0.0491506203428008,1
259,34,19,0.0540060141922896,1
259,35,19,0.0587321221987815,1
260,8,19,0.0447775396795943,1
260,9,19,0.0439705304404793,1
260,10,19,0.0444944646713998,1
260,11,19,0.0446400815569182,1
260,12,19,0.0430225865481995,1
260,34,19,0.0443082459107567,1
260,35,19,0.050617197162511,1
260,36,19,0.058071159680603,1
261,7,19,0.0452854645687151,1
261,8,19,0.0443338251731864,1
261,9,19,0.0444044452400275,1
261,10,19,0.0441037091325461,1
261,11,19,0.0435925537193707,1
261,35,19,0.0421034308154645,1
261,36,19,0.0516869845273091,1
261,37,19,0.0655098373593611,1
262,7,19,0.0444145233937305,1
262,8,19,0.04480548168514,1
262,9,19,0.0461688493438862,1
262,10,19,0.0445587561551351,1
262,11,19,0.0415623058711863,1
262,36,19,0.0446196251757297,1
262,37,19,0.0622320043752163,1
262,38,19,0.0732118446507539,1
263,6,19,0.04366053529962,1
263,7,19,0.0453984923601107,1
263,8,19,0.0459014430531979,1
263,9,19,0.0465918073953232,1
263,10,19,0.0433860056358074,1
263,37,19,0.0516761169903225,1
263,38,19,0.0654767265153283,1
264,6,19,0.0450621907509885,1
264,7,19,0.0483253904073451,1
264,8,19,0.0477005340642893,1
264,9,19,0.0451476955587869,1
264,37,19,0.041029634356798,1
264,38,19,0.0563157280531767,1
264,39,19,0.0689045909839712,1
265,5,19,0.0444293027033588,1
265,6,19,0.0453306486515993,1
265,7,19,0.0488399709870284,1
265,8,19,0.047546198818875,1
265,9,19,0.0420567058131569,1
265,38,19,0.0505950890238352,1
265,39,19,0.0650664202233682,1
266,5,19,0.0444025826198822,1
266,6,19,0.0438323775523789,1
266,7,19,0.0458687539344809,1
266,8,19,0.0444724457438486,1
266,38,19,0.044823948387915,1
266,39,19,0.0591655801292374,1
266,40,19,0.069769711808923,1
267,5,19,0.0459611279988671,1
267,6,19,0.0454063699727423,1
267,7,19,0.0452640079415851,1
267,8,19,0.0422947319068377,1
267,39,19,0.0522710632763585,1
267,40,19,0.0635680950567997,1
268,4,19,0.0459750935949051,1
268,6,19,0.0507610271221715,1
268,7,19,0.0466651659733502,1
268,39,19,0.0452049474737875,1
268,40,19,0.0578502675295642,1
269,7,19,0.0473244524037348,1
269,40,19,0.0544061179756458,1
270,40,19,0.049416566815088,1
270,41,19,0.0618887091546055,1
271,40,19,0.0441037307594853,1
271,41,19,0.0565240279188215,1
272,41,19,0.0520222885938571,1
273,41,19,0.0477835977313168,1
274,41,19,0.0436758985366088,1
274,42,19,0.0530271627004158,1
275,42,19,0.0483458224582269,1
276,42,19,0.0456934567781726,1
277,42,19,0.0473237170877994,1
278,42,19,0.0517012799341711,1
279,42,19,0.0554854698543391,1
280,42,19,0.0604293881730228,1
281,42,19,0.0611441260757131,1
282,42,19,0.0548885717370334,1
283,42,19,0.0511980913447518,1
284,42,19,0.0514739321417582,1
285,42,19,0.051235678965215,1
288,41,19,0.0410510152896405,1
253,16,20,0.0447973364391348,1
253,17,20,0.0461890867523145,1
253,18,20,0.0481979536676564,1
253,19,20,0.0513739670216859,1
253,20,20,0.0544021710592278,1
253,21,20,0.0544476146653832,1
253,22,20,0.0551699274035553,1
253,23,20,0.054854758017474,1
253,24,20,0.0546014470844593,1
253,25,20,0.0556564848766707,1
253,26,20,0.0554100999709593,1
253,27,20,0.05317865941005,1
254,15,20,0.0428382871784171,1
254,16,20,0.0471569571657706,1
254,17,20,0.0497191385090405,1
254,18,20,0.0510955796525797,1
254,19,20,0.0525458551668099,1
254,20,20,0.0554626047727887,1
254,21,20,0.0577094112740542,1
254,22,20,0.0640546200895061,1
254,23,20,0.0656661622831888,1
254,24,20,0.0564244358634517,1
254,25,20,0.0502607906099636,1
254,26,20,0.0468725250671365,1
254,27,20,0.0442646514079094,1
254,28,20,0.0444276455391367,1
254,29,20,0.0490425613407041,1
255,12,20,0.0420301857788687,1
255,15,20,0.0427675427566752,1
255,16,20,0.0489662777191399,1
255,17,20,0.0515482152714393,1
255,18,20,0.0501393877863331,1
255,19,20,0.0493087943699368,1
255,20,20,0.0525857730899801,1
255,21,20,0.0602236835400912,1
255,22,20,0.0774783910110828,1
255,23,20,0.0832883276726983,1
255,24,20,0.0624053659204594,1
255,25,20,0.0452539243811473,1
255,29,20,0.0450810197049964,1
255,30,20,0.0513415266127706,1
255,31,20,0.0554624966380923,1
256,11,20,0.0459893890017671,1
256,12,20,0.0416467455522253,1
256,15,20,0.0411367336634642,1
256,16,20,0.0458118913043873,1
256,17,20,0.047456360513119,1
256,18,20,0.0450538427524277,1
256,19,20,0.0431827583638511,1
256,20,20,0.0445270483587878,1
256,21,20,0.0518089334311563,1
256,22,20,0.0704365892949938,1
256,23,20,0.0777995294324044,1
256,24,20,0.0562612065392598,1
256,30,20,0.0470785649176269,1
256,31,20,0.0527308249717098,1
256,32,20,0.05720727159119,1
257,10,20,0.0479972016038192,1
257,11,20,0.0449467704794355,1
257,12,20,0.0426027779197947,1
257,13,20,0.0416701080533791,1
257,22,20,0.0442303375653793,1
257,23,20,0.047448526154366,1
257,30,20,0.0420538240234983,1
257,31,20,0.0495239067214538,1
257,32,20,0.0562406717604164,1
257,33,20,0.0612268220847729,1
258,9,20,0.0473695607923315,1
258,10,20,0.0458961282328706,1
258,11,20,0.044686306436255,1
258,12,20,0.0440505203787621,1
258,13,20,0.0429892513246717,1
258,31,20,0.0440154522967247,1
258,32,20,0.0514660166819829,1
258,33,20,0.0577873493564731,1
258,34,20,0.0640738356250536,1
258,35,20,0.0677954047425456,1
259,8,20,0.048247668594319,1
259,9,20,0.0456025046850439,1
259,10,20,0.0459323966100378,1
259,11,20,0.0448805839351462,1
259,12,20,0.0435218525515074,1
259,32,20,0.0426575184064718,1
259,33,20,0.0487195846295439,1
259,34,20,0.0536236553126101,1
259,35,20,0.058570136423598,1
259,36,20,0.0654393713844624,1
260,7,20,0.0494991006221032,1
260,8,20,0.0461487741375025,1
260,9,20,0.0451196832656886,1
260,10,20,0.0457318067482452,1
260,11,20,0.0449732202261711,1
260,12,20,0.0427516172192652,1
260,34,20,0.0436060624463165,1
260,35,20,0.0500336969340872,1
260,36,20,0.0597689068542432,1
260,37,20,0.067886994830383,1
261,7,20,0.0477176085328483,1
261,8,20,0.0461949098057148,1
261,9,20,0.0457543798661154,1
261,10,20,0.0447795672051515,1
261,11,20,0.042785255219943,1
261,35,20,0.0411719936845877,1
261,36,20,0.05117033316819,1
261,37,20,0.0635011002056549,1
262,6,20,0.0469791296575668,1
262,7,20,0.0471758374837593,1
262,8,20,0.0470319858971594,1
262,9,20,0.0474631351518475,1
262,10,20,0.044805660107389,1
262,36,20,0.0422214328028937,1
262,37,20,0.0572642423559799,1
262,38,20,0.0706231432731957,1
263,6,20,0.0468668696225156,1
263,7,20,0.0482987892720346,1
263,8,20,0.0481181935156034,1
263,9,20,0.0472921633833945,1
263,10,20,0.0428024837804444,1
263,37,20,0.0486691830475593,1
263,38,20,0.0638195676999759,1
263,39,20,0.0728793142391682,1
264,5,20,0.0468778182605245,1
264,6,20,0.0483584201503557,1
264,7,20,0.0511873265357268,1
264,8,20,0.0496161672444087,1
264,9,20,0.0444191164149594,1
264,38,20,0.0542198938082678,1
264,39,20,0.0670750330221736,1
265,5,20,0.0468967796795355,1
265,6,20,0.048519065055304,1
265,7,20,0.0512278337929923,1
265,8,20,0.0484411215661503,1
265,38,20,0.0479138513798463,1
265,39,20,0.0632314879671603,1
266,5,20,0.0459886104319531,1
266,6,20,0.0460672946437771,1
266,7,20,0.0468751635537283,1
266,8,20,0.0435399651131517,1
266,38,20,0.042812870118032,1
266,39,20,0.0587742568832276,1
266,40,20,0.0710767412908532,1
267,6,20,0.0470248273802588,1
267,7,20,0.0451126680272607,1
267,39,20,0.0525310893740186,1
267,40,20,0.0649009146638174,1
268,7,20,0.045831041959117,1
268,39,20,0.0440874240472706,1
268,40,20,0.0576276884772619,1
269,40,20,0.052699628111803,1
269,41,20,0.0675498146268527,1
270,40,20,0.0477437663159037,1
270,41,20,0.0610522548376652,1
271,40,20,0.0432378665084959,1
271,41,20,0.0568203602407926,1
272,41,20,0.0532033141208256,1
273,41,20,0.0499435125973028,1
274,41,20,0.0472165718238872,1
274,42,20,0.0575054746434085,1
275,41,20,0.0431061503381978,1
275,42,20,0.0528615111590249,1
276,42,20,0.0486042751960547,1
277,42,20,0.0489135999017964,1
278,42,20,0.0556555495115469,1
279,41,20,0.0425883635647667,1
279,42,20,0.0654874805108837,1
280,41,20,0.0438410959122749,1
280,42,20,0.0729203026958326,1
281,41,20,0.0432442383454803,1
281,42,20,0.0709846591901473,1
282,42,20,0.0602239484700973,1
283,42,20,0.0531241433028679,1
284,42,20,0.0520595464034962,1
285,42,20,0.0515721725134232,1
286,42,20,0.0515451280258575,1
289,41,20,0.0468962984801366,1
291,40,20,0.0443741242711613,1
292,40,20,0.0656201725968167,1
293,39,20,0.0442330598563608,1
252,18,21,0.0485809829824535,1
252,19,21,0.0523400369924471,1
252,20,21,0.0562524746625268,1
252,21,21,0.0570569697699508,1
252,22,21,0.0552177229393571,1
252,23,21,0.0548798020131566,1
252,24,21,0.0579725732779095,1
253,15,21,0.0464907825552263,1
253,16,21,0.0478695053408592,1
253,17,21,0.049410916777202,1
253,18,21,0.0504426569490773,1
253,19,21,0.0532963099597159,1
253,20,21,0.0563300234600387,1
253,21,21,0.0570280978060162,1
253,22,21,0.0562404230506147,1
253,23,21,0.0560257324244136,1
253,24,21,0.0556400970634336,1
253,25,21,0.0559521954241376,1
253,26,21,0.055701333741996,1
253,27,21,0.0553083614418663,1
254,13,21,0.0445629031207414,1
254,14,21,0.0432654678897479,1
254,15,21,0.0452295021599689,1
254,16,21,0.0494092028422643,1
254,17,21,0.0528400626419971,1
254,18,21,0.0531448240635514,1
254,19,21,0.0550927732976852,1
254,20,21,0.0578024828072321,1
254,21,21,0.0594810631059382,1
254,22,21,0.0613204451049023,1
254,23,21,0.0621494543479967,1
254,24,21,0.055480987671174,1
254,25,21,0.0492763053004081,1
254,26,21,0.0457943734835731,1
254,27,21,0.0441495312101388,1
254,28,21,0.0446284057130761,1
254,29,21,0.0496735272941057,1
254,30,21,0.0562379359525979,1
255,11,21,0.050594678111989,1
255,12,21,0.0448952091528321,1
255,13,21,0.0419649183794986,1
255,14,21,0.0413700261608108,1
255,15,21,0.0445908370161848,1
255,16,21,0.0514411240748752,1
255,17,21,0.0553648834476663,1
255,18,21,0.0526288918001633,1
255,19,21,0.052582664217459,1
255,20,21,0.0552474762010672,1
255,21,21,0.0596735915261154,1
255,22,21,0.0679960757053605,1
255,23,21,0.0719938532778265,1
255,24,21,0.0581973096174047,1
255,25,21,0.0441979214867708,1
255,29,21,0.0442967755228377,1
255,30,21,0.0514741592246206,1
255,31,21,0.0570607436708546,1
256,10,21,0.0533965291963248,1
256,11,21,0.0486692965889905,1
256,12,21,0.0440151630364119,1
256,13,21,0.0413753436845055,1
256,15,21,0.0410932310751089,1
256,16,21,0.046379274056315,1
256,17,21,0.0493897169699758,1
256,18,21,0.0459555428417989,1
256,19,21,0.0450605579170731,1
256,20,21,0.0466890042671681,1
256,21,21,0.0517087358214867,1
256,22,21,0.0622011913934817,1
256,23,21,0.0669164480831914,1
256,24,21,0.0511902191388551,1
256,30,21,0.0461109053668288,1
256,31,21,0.0529756905849369,1
256,32,21,0.0574722772916186,1
256,33,21,0.0611583079411439,1
257,9,21,0.0542415477812188,1
257,10,21,0.0504655220306277,1
257,11,21,0.0476333121302821,1
257,12,21,0.0446794669167087,1
257,13,21,0.0424941890576857,1
257,22,21,0.0430808603360809,1
257,23,21,0.0447016615631415,1
257,31,21,0.0485945701070542,1
257,32,21,0.0550571050680829,1
257,33,21,0.0603732987060083,1
257,34,21,0.0681031074278415,1
258,8,21,0.0544073669313891,1
258,9,21,0.0489650071364574,1
258,10,21,0.0479303202941056,1
258,11,21,0.0465094195701481,1
258,12,21,0.0445645413613916,1
258,13,21,0.0421441327151835,1
258,31,21,0.0421871541041399,1
258,32,21,0.0501920980440856,1
258,33,21,0.0571691757376538,1
258,34,21,0.0642711868526895,1
258,35,21,0.0689368151234937,1
259,8,21,0.0506577855207988,1
259,9,21,0.0471130761059779,1
259,10,21,0.0472717313325127,1
259,11,21,0.0453507319680852,1
259,12,21,0.0424402866149056,1
259,33,21,0.0480007159814517,1
259,34,21,0.0539778667308208,1
259,35,21,0.0594237841572635,1
259,36,21,0.0693864500045287,1
260,7,21,0.0518768528339552,1
260,8,21,0.0477155377534126,1
260,9,21,0.0457925135667953,1
260,10,21,0.0456239640155413,1
260,11,21,0.0433324032668097,1
260,34,21,0.0438236700059526,1
260,35,21,0.0512219350453045,1
260,36,21,0.0642723114535319,1
260,37,21,0.0746849149589819,1
261,6,21,0.0511973668422861,1
261,7,21,0.0498058030614576,1
261,8,21,0.0476426765949889,1
261,9,21,0.0461001513712734,1
261,10,21,0.0441963427202035,1
261,35,21,0.0410942042873763,1
261,36,21,0.0528125261415629,1
261,37,21,0.065382200570484,1
261,38,21,0.0734080172101992,1
262,6,21,0.0502068097695286,1
262,7,21,0.0498496084269628,1
262,8,21,0.0485704831034346,1
262,9,21,0.0467341018422952,1
262,10,21,0.0427906781749666,1
262,36,21,0.0412113601208064,1
262,37,21,0.0550283196119054,1
262,38,21,0.0681029560392666,1
263,5,21,0.0511213914046066,1
263,6,21,0.0511479817264474,1
263,7,21,0.0511359463347399,1
263,8,21,0.0494633026308653,1
263,9,21,0.045773741383503,1
263,37,21,0.047144532489156,1
263,38,21,0.0618041964826465,1
263,39,21,0.0715860178636788,1
264,5,21,0.0515764222069911,1
264,6,21,0.0523080669694611,1
264,7,21,0.0523178585662187,1
264,8,21,0.0488988016685962,1
264,9,21,0.0414366046933746,1
264,38,21,0.0531857368259283,1
264,39,21,0.0655981347456936,1
265,5,21,0.0509122967489433,1
265,6,21,0.0513139036045793,1
265,7,21,0.0504189916707736,1
265,8,21,0.0452239332231051,1
265,38,21,0.0465273266758694,1
265,39,21,0.0617324869587393,1
265,40,21,0.07523359581517,1
266,5,21,0.0488683076842159,1
266,6,21,0.0479355540134106,1
266,7,21,0.0460285932359412,1
266,38,21,0.0413146368659555,1
266,39,21,0.0580321446821476,1
266,40,21,0.0717470682737386,1
267,4,21,0.0486693128091949,1
267,6,21,0.0482026521202143,1
267,7,21,0.0442149932519624,1
267,39,21,0.052145053914662,1
267,40,21,0.0657683874184156,1
268,3,21,0.045782592208402,1
268,7,21,0.0437531310401338,1
268,39,21,0.0428401200615209,1
268,40,21,0.0573153468134911,1
269,40,21,0.0517245397073633,1
269,41,21,0.0677037335536859,1
270,40,21,0.0471147900409156,1
270,41,21,0.0621983528577016,1
271,40,21,0.0436055866536524,1
271,41,21,0.0589713053337136,1
272,41,21,0.0561434100077537,1
273,41,21,0.0538480888749554,1
274,41,21,0.0530076389809836,1
274,42,21,0.0636573386217255,1
275,41,21,0.0498455047152351,1
275,42,21,0.0608927886009075,1
276,41,21,0.0444100979812809,1
276,42,21,0.0554529375309319,1
277,41,21,0.0423849811244399,1
277,42,21,0.054625382699504,1
278,41,21,0.044994306491966,1
278,42,21,0.0638519432280733,1
279,41,21,0.0499940006870446,1
279,42,21,0.0817154165992987,1
280,41,21,0.0527208062920898,1
280,42,21,0.0913513480547044,1
281,41,21,0.0516831024917089,1
281,42,21,0.0847054761226912,1
282,41,21,0.0461316618217997,1
282,42,21,0.0684872991906248,1
283,41,21,0.0413417273107671,1
283,42,21,0.0583629881924697,1
284,42,21,0.0549475213667672,1
285,42,21,0.0531929872573209,1
286,42,21,0.0522460517210848,1
287,42,21,0.0517601268359433,1
289,41,21,0.0453540003392834,1
290,41,21,0.0514077320806318,1
291,40,21,0.0456678883292125,1
291,41,21,0.0609274133306897,1
292,40,21,0.0765031998786815,1
293,39,21,0.0479165493405211,1
251,19,22,0.0540058195498361,1
251,20,22,0.0588319791841575,1
251,21,22,0.0615770325192175,1
252,15,22,0.0502539078365387,1
252,16,22,0.0494516727442691,1
252,17,22,0.0495941942741035,1
252,18,22,0.0509316961134746,1
252,19,22,0.054239087716876,1
252,20,22,0.0590592675024873,1
252,21,22,0.0606901874337621,1
252,22,22,0.0581635715921329,1
252,23,22,0.0586251121032397,1
253,13,22,0.0527876065007811,1
253,14,22,0.049658626332944,1
253,15,22,0.0490615335731847,1
253,16,22,0.0494683092673078,1
253,17,22,0.0507850005843599,1
253,18,22,0.0514148635638583,1
253,19,22,0.0543450921597414,1
253,20,22,0.0578346799130805,1
253,21,22,0.0594236706158323,1
253,22,22,0.0576524675429383,1
253,23,22,0.0575360659490156,1
253,24,22,0.0567829456358437,1
253,25,22,0.0559690914704476,1
253,26,22,0.0559585104904064,1
253,27,22,0.0577963731968864,1
254,12,22,0.0522431428977521,1
254,13,22,0.0485688556762541,1
254,14,22,0.046481612732973,1
254,15,22,0.0476978955776975,1
254,16,22,0.0502541943934842,1
254,17,22,0.0533495068236021,1
254,18,22,0.0528808456427384,1
254,19,22,0.0558052187448122,1
254,20,22,0.0581166843877807,1
254,21,22,0.060157656494479,1
254,22,22,0.0598906503021673,1
254,23,22,0.0592579487868887,1
254,24,22,0.0539116612629596,1
254,25,22,0.0482713338726227,1
254,26,22,0.0453662411869141,1
254,27,22,0.0444606266215338,1
254,28,22,0.0448689297182434,1
254,29,22,0.0498974364031736,1
254,30,22,0.058708570461909,1
255,11,22,0.0538421847205328,1
255,12,22,0.0485520947983145,1
255,13,22,0.0446744629836335,1
255,14,22,0.0434565391948913,1
255,15,22,0.0463218166853913,1
255,16,22,0.0514661518503533,1
255,17,22,0.0554918660216302,1
255,18,22,0.052309775497664,1
255,19,22,0.0537678691504428,1
255,20,22,0.0552202641047221,1
255,21,22,0.0583580788772539,1
255,22,22,0.0617849430999553,1
255,23,22,0.0625321322250306,1
255,24,22,0.0529552585340551,1
255,25,22,0.0424861897935207,1
255,29,22,0.0433785281215524,1
255,30,22,0.0522417047062902,1
255,31,22,0.0602320856060002,1
255,32,22,0.0633993508630922,1
256,10,22,0.0560533878730139,1
256,11,22,0.052160306313587,1
256,12,22,0.0470783648684386,1
256,13,22,0.0427959254111087,1
256,15,22,0.0414349718594592,1
256,16,22,0.045848684134832,1
256,17,22,0.0496212495751388,1
256,18,22,0.0460735880831066,1
256,19,22,0.0463447196140854,1
256,20,22,0.0466802237298217,1
256,21,22,0.0496983766473348,1
256,22,22,0.0545956132175894,1
256,23,22,0.0556731862805272,1
256,24,22,0.044634866761185,1
256,30,22,0.0462101676113746,1
256,31,22,0.0550097853249452,1
256,32,22,0.0591896779463266,1
256,33,22,0.0629953758576055,1
257,9,22,0.0578280891033359,1
257,10,22,0.052750467639308,1
257,11,22,0.0506156129892089,1
257,12,22,0.0466709998402202,1
257,13,22,0.0427143945534024,1
257,31,22,0.049071303543003,1
257,32,22,0.0550157813938597,1
257,33,22,0.0614170958965305,1
257,34,22,0.0714157705976916,1
258,8,22,0.0574129545971823,1
258,9,22,0.0512658809859151,1
258,10,22,0.0497846140677011,1
258,11,22,0.0482049824229214,1
258,12,22,0.0444518109404111,1
258,32,22,0.0482131790329073,1
258,33,22,0.056662175400187,1
258,34,22,0.0654769265645166,1
258,35,22,0.0702657689151157,1
259,7,22,0.0593548915421971,1
259,8,22,0.0532138518469882,1
259,9,22,0.0485689259638067,1
259,10,22,0.0473646785107897,1
259,11,22,0.0447914674284886,1
259,33,22,0.0461330946065268,1
259,34,22,0.0539588296175224,1
259,35,22,0.060428815059132,1
259,36,22,0.072440330625727,1
260,7,22,0.0531880346882265,1
260,8,22,0.0486582560364897,1
260,9,22,0.0458986207376222,1
260,10,22,0.0443341820176844,1
260,34,22,0.0435155780357497,1
260,35,22,0.0527165998524005,1
260,36,22,0.0687020546976437,1
260,37,22,0.0822051099786092,1
261,6,22,0.0530136566768374,1
261,7,22,0.0508401006189024,1
261,8,22,0.0476969007384908,1
261,9,22,0.0451404748644359,1
261,10,22,0.042310692588024,1
261,36,22,0.0544403209801121,1
261,37,22,0.0689672117866473,1
261,38,22,0.0747976453799624,1
262,6,22,0.053692082948482,1
262,7,22,0.0524253444544246,1
262,8,22,0.0492647186676906,1
262,9,22,0.0449015323292032,1
262,36,22,0.0410655810332435,1
262,37,22,0.0553993189417298,1
262,38,22,0.0684212072641948,1
263,5,22,0.0548511355051452,1
263,6,22,0.0558061432964663,1
263,7,22,0.0536884225890093,1
263,8,22,0.0497395164925741,1
263,9,22,0.0426532362724949,1
263,37,22,0.046092836059063,1
263,38,22,0.0612466972419683,1
263,39,22,0.072932792253265,1
264,5,22,0.0567688016175566,1
264,6,22,0.0571618063580952,1
264,7,22,0.053012802412736,1
264,8,22,0.0467688995875916,1
264,38,22,0.0538234720113235,1
264,39,22,0.0673837143264718,1
265,5,22,0.0553230569471049,1
265,6,22,0.0542739233093162,1
265,7,22,0.0483817556178354,1
265,38,22,0.0462037606306139,1
265,39,22,0.0617307946507409,1
265,40,22,0.0758635831495692,1
266,4,22,0.0507029533834784,1
266,5,22,0.0519408685742146,1
266,6,22,0.0497280812484315,1
266,7,22,0.0440741667334939,1
266,39,22,0.0571294470502023,1
266,40,22,0.0714713302046938,1
267,4,22,0.0509600868780103,1
267,6,22,0.0486095251355641,1
267,7,22,0.0418648099809536,1
267,39,22,0.0511754317191245,1
267,40,22,0.0657846670969563,1
268,3,22,0.0481002485627385,1
268,7,22,0.0412007169633147,1
268,39,22,0.0422869678356373,1
268,40,22,0.0574707904395433,1
268,41,22,0.0700083867107822,1
269,40,22,0.0513624128293772,1
269,41,22,0.0676213186948367,1
270,40,22,0.0474110034147207,1
270,41,22,0.0647639134102335,1
271,40,22,0.0447314851124043,1
271,41,22,0.0630296167092155,1
272,40,22,0.0427284412504627,1
272,41,22,0.06146211777737,1
273,41,22,0.06013146086428,1
274,41,22,0.0618001035843884,1
274,42,22,0.0756308502492764,1
275,41,22,0.061107257550981,1
275,42,22,0.0776683187918119,1
276,41,22,0.0541912327069912,1
276,42,22,0.0695948796318091,1
277,41,22,0.0495852461279777,1
277,42,22,0.0644397688443524,1
278,41,22,0.0523124464246647,1
278,42,22,0.0759865106724187,1
279,41,22,0.0582815141054791,1
279,42,22,0.101276112690887,1
280,41,22,0.0627569658857525,1
280,42,22,0.114416738316716,1
281,41,22,0.0609196005988759,1
281,42,22,0.10068388058573,1
282,41,22,0.0543851344378125,1
282,42,22,0.0800952398501097,1
283,41,22,0.0473327949955609,1
283,42,22,0.0676549107382684,1
284,41,22,0.043302144475394,1
284,42,22,0.0612440479419069,1
285,42,22,0.056287218340475,1
286,42,22,0.0534656218605794,1
287,42,22,0.0534288019964606,1
288,42,22,0.0545295429180987,1
289,41,22,0.0435483833992652,1
289,42,22,0.0562581895812307,1
290,41,22,0.0496422006725632,1
291,40,22,0.0435191032268518,1
291,41,22,0.0585420970968256,1
292,40,22,0.07422950568516,1
293,39,22,0.0481678057143045,1
251,19,23,0.056719416501718,1
251,20,23,0.0613935171259839,1
252,14,23,0.0538521168923957,1
252,15,23,0.053207726016438,1
252,19,23,0.0574150470035573,1
252,20,23,0.0619001389920133,1
252,21,23,0.0646148389177983,1
253,12,23,0.0591691972348314,1
253,13,23,0.0550360836831058,1
253,14,23,0.052369736186809,1
253,15,23,0.0515449225699344,1
253,16,23,0.0519965579428525,1
253,17,23,0.0533140656768622,1
253,18,23,0.054643954833608,1
253,19,23,0.0563515314511495,1
253,20,23,0.0598189299647905,1
253,21,23,0.0614420371642515,1
253,22,23,0.0600203092098667,1
253,23,23,0.0593835310165345,1
253,24,23,0.0595062260497868,1
253,25,23,0.0572691949250743,1
253,26,23,0.0578494619260762,1
253,27,23,0.0602435803242259,1
253,28,23,0.0603959745518401,1
253,29,23,0.0616156041654177,1
254,11,23,0.0604299288465047,1
254,15,23,0.0500996590988816,1
254,16,23,0.0516770145083024,1
254,17,23,0.0535730104275585,1
254,18,23,0.0534411455720529,1
254,19,23,0.0555451439865387,1
254,20,23,0.0583396635384597,1
254,21,23,0.0598622162837531,1
254,22,23,0.0589345719773519,1
254,23,23,0.0567205356958256,1
254,24,23,0.053341256146268,1
254,25,23,0.0481750993995756,1
254,26,23,0.0454861571584693,1
254,27,23,0.0450894109574358,1
254,28,23,0.0467201957203401,1
254,29,23,0.0520993615987049,1
254,30,23,0.0617207597509165,1
255,10,23,0.0607720021450463,1
255,11,23,0.0571841145459593,1
255,14,23,0.0465568636681867,1
255,15,23,0.0476636114722089,1
255,16,23,0.0506891932433635,1
255,17,23,0.0531565783050483,1
255,18,23,0.0508706432638962,1
255,19,23,0.0520485923587525,1
255,20,23,0.0535650030532913,1
255,21,23,0.0551554157273006,1
255,22,23,0.0559261728094527,1
255,23,23,0.0538223365970115,1
255,24,23,0.0479871721107296,1
255,29,23,0.0439431939892334,1
255,30,23,0.0533106432137217,1
255,31,23,0.0631446017386156,1
255,32,23,0.0673540367590492,1
255,33,23,0.0693992207121717,1
256,9,23,0.0720098896533003,1
256,10,23,0.0599641548620344,1
256,11,23,0.0558484834368355,1
256,12,23,0.0511667809434138,1
256,13,23,0.0456007096490839,1
256,14,23,0.0420879594437793,1
256,15,23,0.0419037492851215,1
256,16,23,0.0447174708557529,1
256,17,23,0.0473856079812749,1
256,18,23,0.0445201791022,1
256,19,23,0.0444970599041131,1
256,20,23,0.0443764789041751,1
256,21,23,0.0456910129340343,1
256,22,23,0.0475871115812519,1
256,23,23,0.0459959095239591,1
256,30,23,0.0458060358105781,1
256,31,23,0.055481733800579,1
256,32,23,0.0601373758321722,1
256,33,23,0.0651507544730782,1
256,34,23,0.0737777459573411,1
257,8,23,0.0747312885235263,1
257,9,23,0.0646431323611073,1
257,10,23,0.0573307181605821,1
257,11,23,0.0539307740705455,1
257,12,23,0.0491701873161115,1
257,13,23,0.0435290894660629,1
257,31,23,0.0478465591582864,1
257,32,23,0.0545046719379303,1
257,33,23,0.0635218674740955,1
257,34,23,0.0755799458409536,1
257,35,23,0.0803770064284779,1
258,7,23,0.067882269344151,1
258,8,23,0.0638819506063199,1
258,9,23,0.0575402183213568,1
258,10,23,0.0542359085568023,1
258,11,23,0.05025402137797,1
258,12,23,0.0443219736104627,1
258,32,23,0.0456723542921732,1
258,33,23,0.0563899517087747,1
258,34,23,0.0669023419120481,1
258,35,23,0.071562266077618,1
258,36,23,0.0736018540602027,1
259,6,23,0.0660918831761185,1
259,7,23,0.0640049376032524,1
259,8,23,0.0574979214348661,1
259,9,23,0.0520021755403296,1
259,10,23,0.0490318776327014,1
259,11,23,0.0443485531188339,1
259,33,23,0.0447958252567529,1
259,34,23,0.0545608100655582,1
259,35,23,0.0617747568115559,1
259,36,23,0.0744655475071622,1
259,37,23,0.0845953463411587,1
260,6,23,0.059730751526624,1
260,7,23,0.0563120352532951,1
260,8,23,0.0511381360623416,1
260,9,23,0.0475305246946341,1
260,10,23,0.0442973080862174,1
260,34,23,0.043781565058548,1
260,35,23,0.0538409087311155,1
260,36,23,0.0720711263318626,1
260,37,23,0.08744578234458,1
260,38,23,0.0849776998141035,1
261,6,23,0.0559046377846678,1
261,7,23,0.0533680573307668,1
261,8,23,0.0495006847954053,1
261,9,23,0.0458550316415098,1
261,10,23,0.041274829780849,1
261,35,23,0.0410529184602969,1
261,36,23,0.0571275600997504,1
261,37,23,0.073970912372227,1
261,38,23,0.0797550913491637,1
262,5,23,0.0556522081494287,1
262,6,23,0.056857282832873,1
262,7,23,0.0553314806399532,1
262,8,23,0.0506974060735539,1
262,9,23,0.0439459730509305,1
262,36,23,0.0422511076669489,1
262,37,23,0.0583178149230552,1
262,38,23,0.071900770931179,1
263,5,23,0.0574088022248411,1
263,6,23,0.0598221685989472,1
263,7,23,0.0569125288492556,1
263,8,23,0.0502663379198881,1
263,37,23,0.0467490676842747,1
263,38,23,0.0632501141686124,1
263,39,23,0.0766312475794048,1
264,5,23,0.060022634105839,1
264,6,23,0.0610516817237743,1
264,7,23,0.054807000328816,1
264,8,23,0.0450334809890986,1
264,38,23,0.0562764156843062,1
264,39,23,0.0711266941138478,1
265,4,23,0.055367343512009,1
265,5,23,0.0590270217360256,1
265,6,23,0.0564849101924045,1
265,7,23,0.0473666249353246,1
265,38,23,0.0477246264746437,1
265,39,23,0.0633824385965777,1
265,40,23,0.0773957490693712,1
266,4,23,0.0544608233185466,1
266,5,23,0.0561753151499218,1
266,6,23,0.051656063410878,1
266,7,23,0.0422607262481923,1
266,39,23,0.056332824148675,1
266,40,23,0.0710102979266599,1
267,3,23,0.0507923483369792,1
267,39,23,0.0496016123142754,1
267,40,23,0.0654626960384724,1
268,39,23,0.0415540065332388,1
268,40,23,0.057850213462216,1
268,41,23,0.0702318200271859,1
269,40,23,0.0517512435706354,1
269,41,23,0.0673367784615062,1
270,40,23,0.0481542564368476,1
270,41,23,0.0662758689552813,1
271,40,23,0.0461959424920653,1
271,41,23,0.0656895193776078,1
272,40,23,0.0455027125804857,1
272,41,23,0.065810035496728,1
273,40,23,0.0447382516410305,1
273,41,23,0.0668795092709066,1
273,42,23,0.0801198296800675,1
274,40,23,0.0446718542340832,1
274,41,23,0.0711299165278001,1
274,42,23,0.0908970093143767,1
275,40,23,0.0436059543116201,1
275,41,23,0.0734305578876605,1
275,42,23,0.0995246225731438,1
276,41,23,0.0651587834742847,1
276,42,23,0.0904440925453065,1
277,41,23,0.0585236763512966,1
277,42,23,0.0817519769401462,1
278,41,23,0.0606768382054935,1
278,42,23,0.0899509929230599,1
279,41,23,0.0666625532228162,1
279,42,23,0.112474141750054,1
280,41,23,0.0738846857653302,1
280,42,23,0.128179927830039,1
281,40,23,0.0426421119156044,1
281,41,23,0.0720553819200691,1
281,42,23,0.111778597755971,1
282,41,23,0.0646652459065178,1
282,42,23,0.0913540946759926,1
283,41,23,0.0547449688602352,1
283,42,23,0.0775500789080506,1
284,41,23,0.0483060991775102,1
284,42,23,0.0686715282728545,1
285,41,23,0.0425420548810402,1
285,42,23,0.0608660468904916,1
286,42,23,0.055449017648188,1
289,41,23,0.0429390524952427,1
291,40,23,0.0432342385894322,1
252,13,24,0.0570312391189462,1
252,14,24,0.0550723088063945,1
252,20,24,0.0631123289384797,1
253,19,24,0.0587764249838901,1
253,20,24,0.0608932968339805,1
253,21,24,0.0623370301990794,1
253,22,24,0.0620894449982383,1
253,23,24,0.0608931832925493,1
253,24,24,0.0612099909192807,1
253,25,24,0.0591341345595289,1
253,26,24,0.0603040330262394,1
253,27,24,0.063031784809878,1
253,28,24,0.0645263252620731,1
253,29,24,0.0662348264312687,1
254,16,24,0.0536805017224992,1
254,17,24,0.054052836515824,1
254,18,24,0.0538210876412683,1
254,19,24,0.0548122178279165,1
254,20,24,0.0570113477415463,1
254,21,24,0.0573786434580196,1
254,22,24,0.0563117324761453,1
254,23,24,0.0535061237111101,1
254,24,24,0.0515805962062715,1
254,25,24,0.04797998115342,1
254,26,24,0.0456122259942488,1
254,27,24,0.0459902270456641,1
254,28,24,0.0489006453651696,1
254,29,24,0.0552213887055645,1
254,30,24,0.0647494287676529,1
255,10,24,0.0653361514100289,1
255,15,24,0.0497099038059693,1
255,16,24,0.0492496500977494,1
255,17,24,0.0492459410776635,1
255,18,24,0.0476266672531893,1
255,19,24,0.047887601682299,1
255,20,24,0.0488306443694653,1
255,21,24,0.0487401194083873,1
255,22,24,0.0482434080872815,1
255,23,24,0.045079373354244,1
255,24,24,0.0419292988105097,1
255,29,24,0.0438140595348115,1
255,30,24,0.0538101390032594,1
255,31,24,0.0665546402025596,1
255,32,24,0.074356488259124,1
255,33,24,0.0778540942001999,1
256,9,24,0.0838679674924611,1
256,10,24,0.0672494380672368,1
256,11,24,0.0596093973636069,1
256,14,24,0.0437658557905308,1
256,15,24,0.0412404618709707,1
256,16,24,0.0411277638903992,1
256,17,24,0.041839436174447,1
256,30,24,0.0438891671915525,1
256,31,24,0.0554594904935328,1
256,32,24,0.0624828119900097,1
256,33,24,0.0687475848115563,1
256,34,24,0.0764209255949376,1
257,8,24,0.0987078487709454,1
257,9,24,0.0898370568002147,1
257,10,24,0.0701171648086098,1
257,11,24,0.0565881842341862,1
257,12,24,0.0514081213655388,1
257,13,24,0.0435913480175061,1
257,31,24,0.0462450518644282,1
257,32,24,0.054741476109542,1
257,33,24,0.064918421671162,1
257,34,24,0.0768417533928559,1
257,35,24,0.0803804072646792,1
258,7,24,0.0781902687510538,1
258,8,24,0.0914223709232895,1
258,9,24,0.0858411283310569,1
258,10,24,0.0671492404575672,1
258,11,24,0.0505963596065177,1
258,12,24,0.0435413384237958,1
258,32,24,0.0431006868326629,1
258,33,24,0.0545698609396455,1
258,34,24,0.0660410058014697,1
258,35,24,0.0714550667463576,1
258,36,24,0.0755111992077274,1
259,6,24,0.0694557535314413,1
259,7,24,0.070845095144259,1
259,8,24,0.0726556754668413,1
259,9,24,0.0666535401958726,1
259,10,24,0.0541291201373882,1
259,11,24,0.0422334492710294,1
259,33,24,0.0421516507799496,1
259,34,24,0.0535926693153612,1
259,35,24,0.0625385554259958,1
259,36,24,0.0759529510693959,1
259,37,24,0.0872355901217484,1
260,6,24,0.0633763506131713,1
260,7,24,0.0597998820380224,1
260,8,24,0.0547257371044833,1
260,9,24,0.049253283423548,1
260,10,24,0.0427458941904591,1
260,34,24,0.0423550061866022,1
260,35,24,0.0530405335556237,1
260,36,24,0.0711877037095478,1
260,37,24,0.0878020861691658,1
260,38,24,0.088700869325102,1
261,5,24,0.0600462345033248,1
261,6,24,0.0588305139590214,1
261,7,24,0.0562382116960737,1
261,8,24,0.0511549510076294,1
261,9,24,0.0451452625281183,1
261,36,24,0.0566740323696456,1
261,37,24,0.0759452086251348,1
261,38,24,0.0842783008180952,1
261,39,24,0.0854394728148076,1
262,5,24,0.0574619342079095,1
262,6,24,0.058829389358179,1
262,7,24,0.0571434991539974,1
262,8,24,0.0503832910007624,1
262,9,24,0.041332130356463,1
262,36,24,0.0417440694823384,1
262,37,24,0.060294176548664,1
262,38,24,0.0760935694285739,1
262,39,24,0.0851406317678803,1
263,5,24,0.0592298770197074,1
263,6,24,0.0619579748343744,1
263,7,24,0.0587539059333681,1
263,8,24,0.0481261684494618,1
263,37,24,0.0470549861470803,1
263,38,24,0.0663314988498361,1
263,39,24,0.0815187033663715,1
263,40,24,0.0908801835556193,1
264,5,24,0.0615345139565992,1
264,6,24,0.0623452916898832,1
264,7,24,0.0555849862154214,1
264,8,24,0.0416691645781531,1
264,38,24,0.0578125879946092,1
264,39,24,0.0755153569868033,1
264,40,24,0.0895523651783094,1
265,4,24,0.0589547769453713,1
265,5,24,0.0629431197655778,1
265,6,24,0.0579171596527475,1
265,7,24,0.0466286164459724,1
265,38,24,0.0483098298245355,1
265,39,24,0.0660353503568488,1
265,40,24,0.0815824866170337,1
266,3,24,0.0539260215506394,1
266,4,24,0.0635159957600818,1
266,6,24,0.0571510361423354,1
266,7,24,0.04132257395267,1
266,39,24,0.0562658238907954,1
266,40,24,0.0724288034670925,1
267,3,24,0.0547053969680934,1
267,39,24,0.048891032190661,1
267,40,24,0.0660131232700071,1
268,39,24,0.0415871552244154,1
268,40,24,0.0582936900722919,1
268,41,24,0.0707591226538988,1
269,40,24,0.0514476554105368,1
269,41,24,0.0665956665063678,1
270,40,24,0.0473252417870184,1
270,41,24,0.0662354914596514,1
271,40,24,0.0464531246472106,1
271,41,24,0.0673838008342289,1
272,40,24,0.0468750283853578,1
272,41,24,0.0678061100774876,1
273,40,24,0.0466184950383908,1
273,41,24,0.0698080671857305,1
273,42,24,0.0859684515293144,1
274,40,24,0.0471448352663059,1
274,41,24,0.0765697675977756,1
274,42,24,0.101945585409671,1
275,40,24,0.0472925256346274,1
275,41,24,0.0838303258046497,1
275,42,24,0.121244146777019,1
276,40,24,0.04425401636052,1
276,41,24,0.0827636094652289,1
276,42,24,0.132308824128605,1
277,40,24,0.0416085280471557,1
277,41,24,0.0802298999875169,1
277,42,24,0.137422524734082,1
278,41,24,0.0764892667230524,1
278,42,24,0.129541776196301,1
279,40,24,0.0420892408399315,1
279,41,24,0.076670208510512,1
279,42,24,0.126878418624359,1
280,40,24,0.046924575703241,1
280,41,24,0.0860404962707804,1
280,42,24,0.138283622948328,1
281,40,24,0.0500288470929544,1
281,41,24,0.0877187629788669,1
281,42,24,0.128469004313882,1
282,40,24,0.0474340901723987,1
282,41,24,0.0803457068406095,1
282,42,24,0.112613213783073,1
283,41,24,0.0662303766885125,1
283,42,24,0.0949318068001499,1
284,41,24,0.0564364280012807,1
284,42,24,0.0828996050661365,1
285,41,24,0.0477900101188123,1
285,42,24,0.0705641395761137,1
286,41,24,0.0417667696584769,1
286,42,24,0.0621205120965094,1
250,20,25,0.0561165385357022,1
252,13,25,0.0579975361725698,1
252,20,25,0.0619684476797192,1
252,29,25,0.0761788066029987,1
253,19,25,0.0573888243396841,1
253,20,25,0.0588562229830868,1
253,21,25,0.0621152837839393,1
253,22,25,0.0649900338738424,1
253,23,25,0.0636746509866166,1
253,24,25,0.0621203931483434,1
253,25,25,0.0605506342013435,1
253,26,25,0.0616093810136408,1
253,27,25,0.0644808059616302,1
253,28,25,0.0680846218014946,1
253,29,25,0.0708030091204263,1
253,30,25,0.0766527771974549,1
254,17,25,0.0527167836813843,1
254,18,25,0.0524705231305739,1
254,19,25,0.051553816648712,1
254,20,25,0.0519354672461302,1
254,21,25,0.052837553917041,1
254,22,25,0.053699976781318,1
254,23,25,0.0515542708144368,1
254,24,25,0.0489488139656739,1
254,25,25,0.0460343730354629,1
254,26,25,0.0450908518522652,1
254,27,25,0.0471274904610059,1
254,28,25,0.0522697386263278,1
254,29,25,0.0592187553661843,1
254,30,25,0.0686433537777116,1
254,31,25,0.0824757278697802,1
255,9,25,0.0733117070428647,1
255,16,25,0.0467579022889693,1
255,17,25,0.0451917766677679,1
255,18,25,0.0442218760253873,1
255,19,25,0.0425660770038419,1
255,20,25,0.0415759740968093,1
255,21,25,0.0413827103606967,1
255,22,25,0.0415576993331204,1
255,29,25,0.0453945616638971,1
255,30,25,0.056020725787971,1
255,31,25,0.0687223191397461,1
255,32,25,0.0805872635321273,1
256,8,25,0.0978543199854459,1
256,9,25,0.0910173740449219,1
256,10,25,0.072426873262762,1
256,30,25,0.0426620816906592,1
256,31,25,0.0542858938202059,1
256,32,25,0.0639636679963774,1
256,33,25,0.0710993468491323,1
256,34,25,0.0764981932422389,1
257,7,25,0.0868100530578027,1
257,8,25,0.130941601467933,1
257,10,25,0.085229550928717,1
257,11,25,0.0555339087915844,1
257,12,25,0.0496450392083433,1
257,13,25,0.041766842649397,1
257,31,25,0.042084023340831,1
257,32,25,0.0523056447522621,1
257,33,25,0.0624362762234208,1
257,34,25,0.0725663345806887,1
257,35,25,0.0760626807525517,1
258,7,25,0.0904918934878431,1
258,9,25,0.141336384375419,1
258,10,25,0.0884925640527223,1
258,11,25,0.0474933317658128,1
258,33,25,0.0498188278856371,1
258,34,25,0.0616431947332001,1
258,35,25,0.0690318438946761,1
258,36,25,0.0774912968870962,1
259,6,25,0.0673022240192767,1
259,7,25,0.0753248020248352,1
259,8,25,0.0985333842517992,1
259,9,25,0.0963732206760114,1
259,10,25,0.0628769791785345,1
259,34,25,0.0500804273431296,1
259,35,25,0.0605742183786249,1
259,36,25,0.0747415126590694,1
260,6,25,0.0648465715721496,1
260,7,25,0.0604982321274758,1
260,8,25,0.0577773414903228,1
260,9,25,0.0520655749128196,1
260,35,25,0.0499253459683103,1
260,36,25,0.0665299097974966,1
260,37,25,0.083361486201537,1
261,5,25,0.0634632638753901,1
261,6,25,0.0627328788821329,1
261,7,25,0.0575749728127746,1
261,8,25,0.0503733480154299,1
261,9,25,0.0424419951431085,1
261,36,25,0.0539692808359279,1
261,37,25,0.0735956471286302,1
261,38,25,0.0849239028026524,1
261,39,25,0.0858660858189823,1
262,5,25,0.06094654235848,1
262,6,25,0.0612855500383792,1
262,7,25,0.0563425778982889,1
262,8,25,0.0469521338306145,1
262,36,25,0.0419350732032966,1
262,37,25,0.0608751139847835,1
262,38,25,0.0784169515150839,1
262,39,25,0.0859266953163057,1
263,5,25,0.0609085276059662,1
263,6,25,0.0623960447096311,1
263,7,25,0.0562330536710562,1
263,8,25,0.0426730087017288,1
263,37,25,0.047288351635347,1
263,38,25,0.0684781239616366,1
263,39,25,0.08440047139807,1
264,5,25,0.0606018035396725,1
264,6,25,0.0611702243846855,1
264,7,25,0.0532744937847204,1
264,38,25,0.0586702258985712,1
264,39,25,0.0790365903590392,1
264,40,25,0.0928406764145338,1
265,4,25,0.0601197390631919,1
265,5,25,0.0631579834072931,1
265,6,25,0.0572522339979465,1
265,7,25,0.0451138737291254,1
265,38,25,0.0479416257766126,1
265,39,25,0.0681056756268806,1
265,40,25,0.0857710516410651,1
265,41,25,0.0950205529454723,1
266,3,25,0.0565804201629858,1
266,6,25,0.0615998110930108,1
266,39,25,0.0566073997697337,1
266,40,25,0.0759151579930097,1
267,7,25,0.0415547175188676,1
267,39,25,0.048426296299276,1
267,40,25,0.0668867705157688,1
268,39,25,0.0417045813945864,1
268,40,25,0.0581255514328842,1
268,41,25,0.0702631736824025,1
269,40,25,0.0517422954245096,1
269,41,25,0.0666505773051917,1
270,40,25,0.047682989209801,1
270,41,25,0.0669094788020094,1
271,40,25,0.0477972659569397,1
271,41,25,0.0698294400084708,1
272,40,25,0.0482220785184197,1
272,41,25,0.0699859055074039,1
273,40,25,0.0486004580412723,1
273,41,25,0.0723095038633067,1
274,40,25,0.050169865550509,1
274,41,25,0.0805455073191186,1
274,42,25,0.105903964105509,1
275,40,25,0.0522312048272713,1
275,41,25,0.0938888043996461,1
275,42,25,0.135578482129703,1
276,40,25,0.0516009417493962,1
276,41,25,0.10876923078254,1
276,42,25,0.182096060462694,1
276,43,25,0.214318664472484,1
277,40,25,0.0505564200564083,1
277,41,25,0.119935662883423,1
277,42,25,0.221723793361689,1
277,43,25,0.275784869741377,2
278,40,25,0.0476683477719105,1
278,41,25,0.106611629999056,1
278,42,25,0.194335459088449,1
278,43,25,0.252860335734875,2
279,40,25,0.0508670315650369,1
279,41,25,0.0953684006368009,1
279,42,25,0.152531439730435,1
279,43,25,0.196472352077575,1
280,40,25,0.0587549926870667,1
280,41,25,0.102448368493979,1
280,42,25,0.146170870381362,1
280,43,25,0.173367611599548,1
281,40,25,0.0654856314075755,1
281,41,25,0.112411207356758,1
281,42,25,0.149635830457599,1
282,40,25,0.0630526223658712,1
282,41,25,0.106889114443448,1
282,42,25,0.139509156716328,1
283,40,25,0.0528230963081344,1
283,41,25,0.086569750728763,1
283,42,25,0.115239773117836,1
284,40,25,0.0427728602803699,1
284,41,25,0.0693450938898966,1
285,41,25,0.0570198309084776,1
286,41,25,0.0496899097006079,1
250,20,26,0.0533131681588822,1
252,20,26,0.059834825765159,1
252,28,26,0.0751719428180265,1
252,29,26,0.0780299536569294,1
253,19,26,0.0547605240363101,1
253,20,26,0.0555889493520439,1
253,21,26,0.0588092492709775,1
253,22,26,0.0648912582354303,1
253,24,26,0.0628602723679431,1
253,25,26,0.0608541250402153,1
253,26,26,0.0601623333200976,1
253,27,26,0.0623986886029577,1
253,28,26,0.0682524035964043,1
253,29,26,0.0743191385349929,1
253,30,26,0.0801394236870523,1
254,18,26,0.0506654090168938,1
254,19,26,0.0477893450904296,1
254,20,26,0.046299843715086,1
254,21,26,0.0472471036554112,1
254,22,26,0.0502536104661237,1
254,23,26,0.0492249791667694,1
254,24,26,0.0460319400047943,1
254,25,26,0.0438051897863405,1
254,26,26,0.0441029305627321,1
254,27,26,0.0471963181952544,1
254,28,26,0.0539399492995337,1
254,29,26,0.0624565839194018,1
254,30,26,0.0722233151035537,1
254,31,26,0.0840303371458167,1
255,9,26,0.0684459376692578,1
255,16,26,0.0449680243540098,1
255,17,26,0.0414745734886424,1
255,29,26,0.047105625625397,1
255,30,26,0.0589657742439936,1
255,31,26,0.071000814513787,1
255,32,26,0.0851577224566438,1
256,8,26,0.0928827840653057,1
256,10,26,0.0721944215126798,1
256,30,26,0.0421881056894681,1
256,31,26,0.0535654680324857,1
256,32,26,0.0658998035149313,1
256,33,26,0.0735956146882213,1
256,34,26,0.0776812841419084,1
257,7,26,0.0908039377811989,1
257,11,26,0.0525840537483076,1
257,32,26,0.0497620950171791,1
257,33,26,0.0597758761354251,1
257,34,26,0.0679959567571944,1
257,35,26,0.0712980551672078,1
258,6,26,0.0628110116070053,1
258,10,26,0.106778589970273,1
258,11,26,0.0440925036746333,1
258,33,26,0.0454679580890679,1
258,34,26,0.0572538722385967,1
258,35,26,0.0667890708175857,1
258,36,26,0.0796426907390072,1
259,6,26,0.063612765499876,1
259,7,26,0.0780490123971671,1
259,9,26,0.126270853019255,1
259,10,26,0.0699375801115898,1
259,34,26,0.0469197637092519,1
259,35,26,0.0589396921552257,1
259,36,26,0.0746522042133257,1
260,6,26,0.0661556934604548,1
260,7,26,0.0610718758783241,1
260,8,26,0.0604700360053936,1
260,9,26,0.0560318690684334,1
260,35,26,0.0481545916544064,1
260,36,26,0.0639741624686615,1
260,37,26,0.0803113416340987,1
261,5,26,0.0686059391727627,1
261,6,26,0.070897372863226,1
261,7,26,0.0611164327799692,1
261,8,26,0.0482834233316784,1
261,36,26,0.051801915489361,1
261,37,26,0.070436762310508,1
261,38,26,0.0839973939105633,1
262,5,26,0.0663172629170571,1
262,6,26,0.0683908862953287,1
262,7,26,0.0576528892682542,1
262,8,26,0.0428445481773378,1
262,36,26,0.0418035030148386,1
262,37,26,0.0596844428428975,1
262,38,26,0.0785249780767717,1
263,5,26,0.0617478204586866,1
263,6,26,0.0634604145261403,1
263,7,26,0.0531612172835232,1
263,37,26,0.0466418142856661,1
263,38,26,0.068987946614679,1
264,4,26,0.0556238390118323,1
264,5,26,0.0589298681180592,1
264,6,26,0.0596492395924896,1
264,7,26,0.0497630844496511,1
264,38,26,0.059974573640031,1
264,39,26,0.0846504355622316,1
265,4,26,0.0592951633426494,1
265,5,26,0.0607745270902069,1
265,6,26,0.055107793207013,1
265,7,26,0.0428726253512539,1
265,38,26,0.0485768035764383,1
265,39,26,0.0723082116536849,1
265,40,26,0.0938123964231811,1
265,41,26,0.105017865149459,1
266,3,26,0.0574571168071855,1
266,6,26,0.0616315378129299,1
266,39,26,0.0601468538383103,1
266,40,26,0.0860768890028484,1
267,39,26,0.0493341357360344,1
267,40,26,0.071147861480665,1
268,39,26,0.0421273069564261,1
268,40,26,0.060039378763574,1
268,41,26,0.0733785937593131,1
269,40,26,0.055345721979467,1
269,41,26,0.0709056992348475,1
270,40,26,0.0528732221466433,1
270,41,26,0.0722564475745258,1
271,40,26,0.0520949497030924,1
271,41,26,0.0737759725483204,1
272,40,26,0.0505890172606333,1
272,41,26,0.0723534281769779,1
273,40,26,0.0509232670138915,1
273,41,26,0.0743828190576935,1
274,40,26,0.0543138196055471,1
274,41,26,0.0830417156841245,1
275,40,26,0.0589318902368816,1
275,41,26,0.100180654149167,1
276,40,26,0.0630316442347727,1
276,41,26,0.133616313182995,1
276,42,26,0.231834646996879,1
276,43,26,0.273446608320645,2
277,40,26,0.0651427362853413,1
277,41,26,0.16241245306846,1
277,42,26,0.309596988907197,2
277,43,26,0.380668907390591,2
277,44,26,0.295925281347016,2
278,40,26,0.060965952536481,1
278,41,26,0.143750221135454,1
278,42,26,0.267246489234066,2
278,43,26,0.33658029386166,2
278,44,26,0.281385079159356,2
279,40,26,0.0623881616902647,1
279,41,26,0.116932881313001,1
279,42,26,0.181135672970227,1
279,43,26,0.221431159246334,2
280,40,26,0.0718634212070479,1
280,41,26,0.119407943938129,1
280,42,26,0.152923071160329,1
281,40,26,0.0831423674595189,1
281,41,26,0.140495345147352,1
281,42,26,0.169710593489063,1
282,40,26,0.0849335105704261,1
282,41,26,0.14549892137803,1
283,40,26,0.0705934873327124,1
283,41,26,0.11999734291424,1
284,40,26,0.0523188696256299,1
284,41,26,0.0865996661925176,1
285,40,26,0.0421472361809697,1
252,28,27,0.0720715264302392,1
252,29,27,0.0774826731450596,1
253,21,27,0.0547591345054615,1
253,28,27,0.0652364295930234,1
253,29,27,0.0737545348447623,1
253,30,27,0.0799499338518435,1
254,10,27,0.061437208950058,1
254,19,27,0.0446079817722965,1
254,20,27,0.0414873198659787,1
254,21,27,0.0422185915637462,1
254,22,27,0.0464236903828548,1
254,23,27,0.046868442982348,1
254,24,27,0.0440363006661876,1
254,25,27,0.0428965285258897,1
254,26,27,0.0442176803991676,1
254,27,27,0.0475039884401414,1
254,28,27,0.0534597231128917,1
254,29,27,0.0630598241366504,1
254,30,27,0.0736925087829163,1
254,31,27,0.0842624212379312,1
254,32,27,0.0974687873524275,1
255,9,27,0.0642241266328231,1
255,17,27,0.0411681008355179,1
255,29,27,0.0484883169543871,1
255,30,27,0.0619497133435707,1
255,32,27,0.087351905207914,1
255,33,27,0.0942735368359113,1
256,8,27,0.0826313985786949,1
256,30,27,0.044098791707228,1
256,31,27,0.0560023374828509,1
256,32,27,0.0688398453345112,1
256,33,27,0.0771008387186575,1
256,34,27,0.0817252406364652,1
257,7,27,0.0868283386349612,1
257,32,27,0.0491589737480965,1
257,33,27,0.0588948595101048,1
257,34,27,0.0655113025844971,1
257,35,27,0.069248334963572,1
257,36,27,0.0761491128153716,1
258,6,27,0.0618160264184309,1
258,11,27,0.0469427044850898,1
258,33,27,0.0432484691154763,1
258,34,27,0.0536835078670587,1
259,6,27,0.0619039453333261,1
259,7,27,0.0795168327658857,1
259,10,27,0.0785417822085897,1
259,34,27,0.0439163657710605,1
259,35,27,0.0572846581866573,1
260,5,27,0.0643163384951647,1
260,6,27,0.0687564788903339,1
260,9,27,0.0647381773524941,1
260,10,27,0.0425175542622069,1
260,35,27,0.047078143192311,1
261,4,27,0.0576604803239404,1
261,5,27,0.0727625558007474,1
261,8,27,0.0493921175602356,1
261,36,27,0.0500471380768478,1
262,4,27,0.0580322852572529,1
262,5,27,0.0709943210252692,1
262,8,27,0.041838703561879,1
262,37,27,0.0570759365956966,1
263,4,27,0.0571194770311957,1
263,5,27,0.0627539435209886,1
263,6,27,0.0653667264954315,1
263,7,27,0.0515976112007476,1
263,37,27,0.046003895271287,1
263,38,27,0.0671055432267584,1
264,4,27,0.0569947490656513,1
264,5,27,0.0594289854361596,1
264,6,27,0.0585487203469792,1
264,7,27,0.0464057292097854,1
264,38,27,0.0613018891910028,1
265,5,27,0.0600046242721562,1
265,6,27,0.0535694311691082,1
265,7,27,0.041064786243225,1
265,38,27,0.0513486580959971,1
265,39,27,0.0775370162367274,1
266,6,27,0.0588107361230528,1
266,38,27,0.0424837324325454,1
266,39,27,0.0659185162241406,1
266,40,27,0.0937638547579742,1
267,39,27,0.051607586626489,1
267,40,27,0.0736662969325128,1
268,39,27,0.0431908333223036,1
268,40,27,0.0614110349467982,1
268,41,27,0.0766132539659265,1
269,40,27,0.0591664776472174,1
269,41,27,0.074604435711198,1
270,40,27,0.0603196747100714,1
270,41,27,0.0775873853783032,1
271,40,27,0.0592796892675968,1
271,41,27,0.0778571868525165,1
272,40,27,0.0560941276198766,1
272,41,27,0.0753929431037616,1
273,40,27,0.0567701208608525,1
273,41,27,0.0774447286800984,1
274,40,27,0.0613412069666081,1
274,41,27,0.0848040246782409,1
275,39,27,0.0449609523448663,1
275,40,27,0.0693124480250582,1
275,41,27,0.105012490855049,1
276,39,27,0.0461832907325883,1
276,40,27,0.0779002677155559,1
276,41,27,0.149045869181067,1
276,42,27,0.25665432806527,2
276,43,27,0.296358166163581,2
276,44,27,0.234883288492037,2
277,39,27,0.0423967002221606,1
277,40,27,0.0824478561517872,1
277,41,27,0.187158061869829,2
277,42,27,0.3492412447878,2
277,43,27,0.417017996295219,2
277,44,27,0.32741388866469,2
277,45,27,0.199802835845389,2
278,40,27,0.0777681163031048,1
278,41,27,0.168597227841622,1
278,42,27,0.305253758826927,2
278,43,27,0.366883377248996,2
278,44,27,0.300680872278477,2
279,39,27,0.0410348897030422,1
279,40,27,0.0741276265809617,1
279,41,27,0.130141264139585,1
279,42,27,0.196415840885244,1
279,43,27,0.227857907029594,2
280,39,27,0.0442362119827604,1
280,40,27,0.0826184764824769,1
280,41,27,0.129701988562463,1
280,42,27,0.158165170904292,1
280,43,27,0.16281709310233,1
281,39,27,0.0448071550695665,1
281,40,27,0.0962110618853137,1
281,42,27,0.179500665547429,1
281,43,27,0.16469217036457,1
282,39,27,0.0437258648764405,1
282,40,27,0.104727761386,1
282,42,27,0.196332858319239,1
283,40,27,0.087611547427402,1
283,42,27,0.172134876060769,1
284,40,27,0.0632611655345829,1
284,41,27,0.10472656109087,1
284,42,27,0.136608194776021,1
285,40,27,0.0513850670482697,1
285,41,27,0.0852889060635623,1
286,40,27,0.0458382275096917,1
252,28,28,0.0702074789070299,1
253,30,28,0.0826063059223989,1
254,10,28,0.0604263333678499,1
254,32,28,0.0965747513096626,1
255,9,28,0.0635796384356387,1
255,33,28,0.0987646627404256,1
256,8,28,0.0753785665958774,1
256,9,28,0.0783183975527994,1
256,34,28,0.0878946278423313,1
257,7,28,0.0782657521758647,1
257,8,28,0.12217898204073,1
258,6,28,0.0622780481289367,1
258,7,28,0.0960737308209058,1
259,6,28,0.0637747620885291,1
260,5,28,0.0636000867067249,1
261,4,28,0.0576167452459878,1
262,4,28,0.0590159271161765,1
263,4,28,0.0580540311446957,1
264,4,28,0.0575568332174562,1
265,4,28,0.0593788163437721,1
266,3,28,0.0606571090301382,1
266,40,28,0.0935780144687684,1
267,2,28,0.0645211293899118,1
267,40,28,0.0734714760567723,1
268,2,28,0.0637775087098173,1
268,40,28,0.0623657669946435,1
269,1,28,0.0586161369234399,1
269,40,28,0.0623127107058626,1
269,41,28,0.0764696348689239,1
270,40,28,0.0674710222803324,1
270,41,28,0.0815684453267082,1
271,40,28,0.0684974151914715,1
271,41,28,0.0846382487819492,1
272,40,28,0.0653693974224322,1
272,41,28,0.0836405926663741,1
273,40,28,0.065008022080586,1
273,41,28,0.0839330375460102,1
274,40,28,0.0691701806117604,1
274,41,28,0.0879264086295986,1
275,40,28,0.0807295796060385,1
275,41,28,0.109616509382588,1
276,41,28,0.15140771477908,1
276,42,28,0.244416616340779,1
276,43,28,0.283056928073212,2
277,42,28,0.328156492878638,2
277,43,28,0.387472136932783,2
277,44,28,0.308931722628102,2
278,42,28,0.290773787665153,2
278,43,28,0.340521544021592,2
278,44,28,0.281439319523062,2
279,41,28,0.135534817339303,1
279,42,28,0.194118822037713,1
279,43,28,0.217437182608446,2
280,42,28,0.157323904593363,1
280,43,28,0.159250497224961,1
281,43,28,0.162588755877445,1
282,43,28,0.168851301124246,1
283,43,28,0.15751330251408,1
284,43,28,0.161656656421553,1
277,43,29,0.305518386055918,2
278,43,29,0.273401667540828,2
279,42,29,0.17617690775773,1
