x,y,z,signal,cytoplasm.p
522,336,2,0.0493812067693704,1
522,337,2,0.0524691011593164,1
523,330,2,0.0428749205101847,1
523,336,2,0.0509749229583542,1
523,337,2,0.0545170587674011,1
523,338,2,0.0424940268556411,1
529,353,2,0.0412444033806539,1
529,358,2,0.0421563384190379,1
529,359,2,0.0427549018106679,1
530,358,2,0.0487239100173993,1
530,359,2,0.0482058853476362,1
521,336,3,0.0500582705438405,1
521,337,3,0.046846761975723,1
522,335,3,0.0515669333873834,1
522,336,3,0.0744454885209829,1
522,337,3,0.0715160979689968,1
522,338,3,0.0449634826967617,1
523,330,3,0.0453167776734206,1
523,335,3,0.0474717859275582,1
523,336,3,0.0664932683556268,1
523,337,3,0.0664774752832199,1
523,338,3,0.0460406826949969,1
524,337,3,0.0420243438018965,1
529,357,3,0.0425961303393345,1
529,358,3,0.0565736833714011,1
529,359,3,0.0655339189562458,1
530,357,3,0.0534103163701138,1
530,358,3,0.0665026328203337,1
530,359,3,0.0733357345724012,1
530,360,3,0.0615102593442003,1
531,357,3,0.0412743242511434,1
531,358,3,0.0485487372159918,1
531,359,3,0.0521079907474763,1
531,360,3,0.0447588891478354,1
531,376,3,0.0416321581816831,1
532,375,3,0.046176721549783,1
532,376,3,0.0565518401627315,1
532,377,3,0.0430538753225982,1
533,375,3,0.0421114165627925,1
533,376,3,0.0499369326010279,1
521,336,4,0.0537325199181948,1
521,337,4,0.0469397524078785,1
522,335,4,0.0576969000896826,1
522,336,4,0.0844312843798047,1
522,337,4,0.0746862504224823,1
522,338,4,0.0449371059409462,1
523,330,4,0.0438334778229146,1
523,335,4,0.0503571980985249,1
523,336,4,0.071064035464028,1
523,337,4,0.0655571246620899,1
523,338,4,0.0433134012972876,1
529,357,4,0.0430385634495902,1
529,358,4,0.0642737172045849,1
529,359,4,0.087897087906674,1
530,357,4,0.0566743838074088,1
530,358,4,0.0784306846215247,1
530,359,4,0.101462569347862,1
530,360,4,0.0920207018253223,1
531,357,4,0.0416350237511372,1
531,358,4,0.0537437497064143,1
531,359,4,0.0666678410094694,1
531,360,4,0.0609171189075939,1
531,376,4,0.0459308610973492,1
532,375,4,0.0518690617290807,1
532,376,4,0.0706720850367792,1
532,377,4,0.0523154039086108,1
533,375,4,0.0447003666501523,1
533,376,4,0.0586091081681749,1
533,377,4,0.0438576243006172,1
521,336,5,0.049687811887498,1
521,337,5,0.0422221491952573,1
522,335,5,0.0556850108095768,1
522,336,5,0.0793471207666456,1
522,337,5,0.067041078727509,1
522,338,5,0.0444916234322524,1
522,339,5,0.0450791219410749,1
522,340,5,0.043474013761827,1
523,335,5,0.0492709039723237,1
523,336,5,0.067628396110715,1
523,337,5,0.0593041709628582,1
529,357,5,0.0409956503250918,1
529,358,5,0.068468451313045,1
529,359,5,0.100892277772602,1
530,357,5,0.051875003730647,1
530,358,5,0.0822556305087599,1
530,359,5,0.11715182163277,1
530,360,5,0.108944571192727,1
531,358,5,0.054769737112442,1
531,359,5,0.0749608476704802,1
531,360,5,0.0703136671788791,1
531,376,5,0.0464324709202012,1
531,377,5,0.0415660284081093,1
532,375,5,0.0508175329077671,1
532,376,5,0.0744163083731637,1
532,377,5,0.0602991669649022,1
533,375,5,0.0437421769953901,1
533,376,5,0.0603269467684033,1
533,377,5,0.0485274292740693,1
522,335,6,0.0452243711686255,1
522,336,6,0.0603849394060741,1
522,337,6,0.0510123645969772,1
522,339,6,0.0456669529640888,1
522,340,6,0.0439739312766806,1
523,335,6,0.0419738530087874,1
523,336,6,0.0542543725562099,1
523,337,6,0.0477980445267537,1
529,358,6,0.0609795396610816,1
529,359,6,0.0920554671302098,1
530,357,6,0.0411362849044742,1
530,358,6,0.0721747896585513,1
530,359,6,0.108040175846048,1
530,360,6,0.0984759755414888,1
531,358,6,0.0491200939180116,1
531,359,6,0.0695637098055764,1
531,360,6,0.0638121118126602,1
531,377,6,0.0420619719728708,1
532,375,6,0.0429789190544322,1
532,376,6,0.0648819262111324,1
532,377,6,0.0608865978895395,1
532,378,6,0.0439012242101993,1
533,376,6,0.0532519855476681,1
533,377,6,0.0488930326825441,1
522,336,7,0.0422101138035497,1
522,339,7,0.0415551473542857,1
529,358,7,0.0562992321052433,1
529,359,7,0.0786194012936543,1
530,358,7,0.0642326206132241,1
530,359,7,0.0910612875451235,1
530,360,7,0.0791668115671598,1
531,358,7,0.0447537500463898,1
531,359,7,0.0602748204380113,1
531,360,7,0.0532293097018363,1
532,376,7,0.0508846521138127,1
532,377,7,0.0547386267602923,1
532,378,7,0.0461674327793636,1
533,376,7,0.0452391045210078,1
533,377,7,0.0470702493594749,1
533,378,7,0.041172853355424,1
529,358,8,0.0460820009624853,1
529,359,8,0.0557409326678119,1
530,358,8,0.0504619211452381,1
530,359,8,0.0630983741559114,1
530,360,8,0.052782286273719,1
531,359,8,0.0440265415098389,1
532,377,8,0.0455166241091756,1
532,378,8,0.0462434676911261,1
532,379,8,0.0417931518210272,1
533,377,8,0.0433661548089186,1
533,378,8,0.0431305103819257,1
534,377,8,0.0425777717712558,1
534,378,8,0.0417727468038195,1
535,376,8,0.0417891778709351,1
535,377,8,0.0421877191079285,1
538,371,8,0.0416184737358557,1
529,358,9,0.0425452637781554,1
529,359,9,0.0428835523623236,1
530,358,9,0.0412329383994698,1
530,359,9,0.0432227898284525,1
532,378,9,0.0426692996816428,1
533,377,9,0.0417874260888537,1
533,378,9,0.0428809246892014,1
534,376,9,0.0430602066090715,1
534,377,9,0.0444130527618596,1
534,378,9,0.0430296747775475,1
535,376,9,0.0435756468595911,1
535,377,9,0.0443717290876364,1
535,378,9,0.0425126098032148,1
535,380,9,0.0412928585381037,1
538,371,9,0.0421395153636479,1
538,372,9,0.0416795995763542,1
533,376,10,0.042186032206665,1
533,377,10,0.0420383742787524,1
533,378,10,0.0417925138263186,1
534,375,10,0.0420469818005846,1
534,376,10,0.0467185466662203,1
534,377,10,0.0465578585073934,1
534,378,10,0.0439782512578012,1
534,379,10,0.0411622318248716,1
535,375,10,0.0426081414007353,1
535,376,10,0.0462158176492607,1
535,377,10,0.0469007806633017,1
535,378,10,0.0445451122598188,1
535,379,10,0.0417408605852232,1
535,380,10,0.0413915774058002,1
536,376,10,0.0412669089143389,1
536,377,10,0.0416037160531666,1
536,380,10,0.0441592417058741,1
537,379,10,0.0415030129137915,1
538,371,10,0.042743623361835,1
538,372,10,0.0459831496297857,1
538,373,10,0.0419175121286038,1
539,371,10,0.0433140446987311,1
539,372,10,0.0444030854462204,1
532,381,11,0.0413585530695245,1
532,382,11,0.0412736808497,1
533,375,11,0.043746440205795,1
533,376,11,0.0441586631852485,1
533,377,11,0.0418592761878661,1
533,382,11,0.0415026371457215,1
534,375,11,0.0449358461717333,1
534,376,11,0.0468962768531973,1
534,377,11,0.0453717722766342,1
534,378,11,0.042830636648648,1
535,375,11,0.0454311760720928,1
535,376,11,0.0467894397731697,1
535,377,11,0.0457030104785981,1
535,378,11,0.0431615342263183,1
535,379,11,0.0410153578735078,1
535,381,11,0.0412641487762137,1
536,374,11,0.0420984133655523,1
536,375,11,0.0439501767872524,1
536,376,11,0.043365022097974,1
536,377,11,0.0422580147706805,1
536,380,11,0.04117394281249,1
537,372,11,0.0410491229324538,1
537,373,11,0.0449746989681441,1
537,374,11,0.0427746012489817,1
538,371,11,0.0418029488245196,1
538,372,11,0.0482645322002201,1
538,373,11,0.0473608559492725,1
539,371,11,0.0439538560702969,1
539,372,11,0.0468477081543163,1
539,373,11,0.0434134961789956,1
529,375,12,0.0430127787312374,1
529,376,12,0.0418837930269038,1
530,374,12,0.0431913334452744,1
530,375,12,0.047925465046238,1
530,376,12,0.0427490841640024,1
531,374,12,0.0438479976092716,1
531,375,12,0.0461417724159116,1
532,375,12,0.0438555264875074,1
532,381,12,0.0416957386797895,1
532,382,12,0.041084434317558,1
533,375,12,0.0469121402131568,1
533,376,12,0.0451067746863077,1
534,375,12,0.0462646188377389,1
534,376,12,0.0458707706465685,1
534,377,12,0.0432051098055937,1
534,378,12,0.0415232016616064,1
535,374,12,0.0431819095064845,1
535,375,12,0.0483940018722009,1
535,376,12,0.0462743617738831,1
535,377,12,0.0431140657979731,1
535,378,12,0.0419275578418979,1
536,374,12,0.0472758350442405,1
536,375,12,0.0485761872086689,1
536,376,12,0.04519433134997,1
536,377,12,0.0420773676502685,1
536,378,12,0.0409843448425849,1
537,372,12,0.0431521400245699,1
537,373,12,0.0483166693440817,1
537,374,12,0.0462859754402747,1
537,375,12,0.0419930009601496,1
538,371,12,0.0431552353802539,1
538,372,12,0.051587430319083,1
538,373,12,0.0527975494861136,1
538,374,12,0.0437495517816835,1
539,371,12,0.045503842588063,1
539,372,12,0.0493061288496709,1
539,373,12,0.0475179432227098,1
529,358,13,0.0429994349097036,1
529,359,13,0.0417841225738791,1
529,374,13,0.0440816685780556,1
529,375,13,0.054733101077307,1
529,376,13,0.0508517305054986,1
530,374,13,0.0526269237486891,1
530,375,13,0.0631316526087236,1
530,376,13,0.0556173401165796,1
530,377,13,0.0425086791070012,1
531,374,13,0.0473195593087234,1
531,375,13,0.0544880894822398,1
531,376,13,0.0485012877112184,1
532,375,13,0.047823694076736,1
532,376,13,0.0447084740490137,1
533,375,13,0.0498067113929072,1
533,376,13,0.0484234307298218,1
533,377,13,0.0412265611557506,1
534,375,13,0.0478082362218879,1
534,376,13,0.0461984566237562,1
534,377,13,0.0419193936723209,1
535,374,13,0.0494545869743367,1
535,375,13,0.0515935074890198,1
535,376,13,0.0458903754670229,1
535,377,13,0.0418268682193598,1
536,373,13,0.0446979065858096,1
536,374,13,0.0541054710792889,1
536,375,13,0.0531431425690226,1
536,376,13,0.0457995044749165,1
536,377,13,0.0418410095342794,1
536,378,13,0.0414473911293389,1
537,372,13,0.0433399726955566,1
537,373,13,0.0487636170779116,1
537,374,13,0.0494149447946423,1
537,375,13,0.0453675658369448,1
537,376,13,0.04213294888421,1
538,371,13,0.0436580427948684,1
538,372,13,0.0524702582005677,1
538,373,13,0.0537130232324367,1
538,374,13,0.0456969765625399,1
539,371,13,0.0445012068697194,1
539,372,13,0.0499581107813147,1
539,373,13,0.0487172002594887,1
540,372,13,0.0412160153194857,1
547,364,13,0.0430401584363619,1
528,375,14,0.0412251067440842,1
529,358,14,0.0441370930166873,1
529,359,14,0.0411747970765915,1
529,374,14,0.0488778073172932,1
529,375,14,0.0621305091491902,1
529,376,14,0.0536753004436031,1
530,374,14,0.055416479918046,1
530,375,14,0.0717063501538151,1
530,376,14,0.0623940604379524,1
530,377,14,0.0461268714547499,1
531,374,14,0.045491699061659,1
531,375,14,0.0582055278543299,1
531,376,14,0.055888752797769,1
531,377,14,0.0459458107191243,1
532,375,14,0.0499465674024757,1
532,376,14,0.0509529445813141,1
532,377,14,0.0427337993246685,1
533,374,14,0.041800588784771,1
533,375,14,0.05114745727317,1
533,376,14,0.0509890237227627,1
534,374,14,0.04575050323725,1
534,375,14,0.0494401834327783,1
534,376,14,0.0461754996277139,1
535,373,14,0.045283464076832,1
535,374,14,0.0579235720402431,1
535,375,14,0.0557913612834706,1
535,376,14,0.0456850330853242,1
536,373,14,0.0489806217866153,1
536,374,14,0.0634120566899174,1
536,375,14,0.0597729294649487,1
536,376,14,0.0467031645056596,1
537,372,14,0.0413309733152117,1
537,373,14,0.0472350196030903,1
537,374,14,0.0536713481204503,1
537,375,14,0.0502709228310148,1
537,376,14,0.0432490043822235,1
538,372,14,0.0487358751215542,1
538,373,14,0.0496071434039955,1
538,374,14,0.0458539502945459,1
539,371,14,0.0413766169705554,1
539,372,14,0.0478909430444173,1
539,373,14,0.046530657224518,1
545,365,14,0.0435696589007788,1
546,364,14,0.0506386564930084,1
546,365,14,0.0518584699355699,1
546,366,14,0.0466983957655491,1
547,363,14,0.0427656395860189,1
547,364,14,0.0557865006288681,1
547,365,14,0.0541998456355582,1
547,366,14,0.0479539801656745,1
548,364,14,0.0481666486730532,1
548,365,14,0.0460872400885251,1
529,374,15,0.0512768458441284,1
529,375,15,0.0635972049170663,1
529,376,15,0.0524864675915557,1
530,374,15,0.0544469982976138,1
530,375,15,0.0708664841872038,1
530,376,15,0.0613472787298101,1
530,377,15,0.0455967951730748,1
531,374,15,0.0442777465196415,1
531,375,15,0.0588501566266196,1
531,376,15,0.0595386502384976,1
531,377,15,0.0495484154503892,1
532,375,15,0.0508770502446569,1
532,376,15,0.0554018492936252,1
532,377,15,0.0469173198651136,1
533,374,15,0.0428077039829123,1
533,375,15,0.0508594296958811,1
533,376,15,0.0520152706520617,1
533,377,15,0.0416112854819135,1
534,373,15,0.042279949893842,1
534,374,15,0.0476327011692475,1
534,375,15,0.0490015836975094,1
534,376,15,0.0446722786627666,1
535,373,15,0.0461963479971767,1
535,374,15,0.0575894682688249,1
535,375,15,0.0541574892749845,1
535,376,15,0.0436409250724308,1
536,373,15,0.0486005715827035,1
536,374,15,0.0629142964622566,1
536,375,15,0.059375502015328,1
536,376,15,0.0454083488376861,1
537,373,15,0.0448547748864867,1
537,374,15,0.0537354017078534,1
537,375,15,0.0524250254570702,1
537,376,15,0.0434200248112898,1
538,372,15,0.0447171653752356,1
538,373,15,0.0455314223423757,1
538,374,15,0.0455866088846754,1
538,375,15,0.0433800798544455,1
539,372,15,0.0456433093127244,1
539,373,15,0.0446317335583573,1
545,364,15,0.0492257198894396,1
545,365,15,0.0548292814830059,1
545,366,15,0.0474038827449638,1
546,364,15,0.0634428534514476,1
546,365,15,0.0752228093792056,1
546,366,15,0.0646743778816275,1
546,367,15,0.044641552188789,1
547,364,15,0.0642036567347976,1
547,365,15,0.0738191561393214,1
547,366,15,0.0643658858130479,1
548,365,15,0.0511068364744732,1
529,374,16,0.0539582781305708,1
529,375,16,0.0606318649852673,1
529,376,16,0.0488171437526217,1
530,374,16,0.0551587462759492,1
530,375,16,0.0667256876653001,1
530,376,16,0.0576610750647705,1
530,377,16,0.0432828937960702,1
531,374,16,0.0451471629954072,1
531,375,16,0.0588148668684547,1
531,376,16,0.0608380724445371,1
531,377,16,0.0498087172915252,1
532,375,16,0.0519954982228279,1
532,376,16,0.0577155749517481,1
532,377,16,0.0482157147915375,1
533,374,16,0.043246446996654,1
533,375,16,0.0486452636527191,1
533,376,16,0.0494460281131179,1
534,373,16,0.044773333239905,1
534,374,16,0.0472173287667619,1
534,375,16,0.0461854588332508,1
535,373,16,0.0459692759482396,1
535,374,16,0.0527792639089551,1
535,375,16,0.0486237772885476,1
536,373,16,0.0477685724152542,1
536,374,16,0.0569063759850314,1
536,375,16,0.0532586628651698,1
537,373,16,0.0443176887731184,1
537,374,16,0.0520177577500786,1
537,375,16,0.0511204776664221,1
538,372,16,0.0422425920596087,1
538,373,16,0.0433703315115665,1
538,374,16,0.0455409706360664,1
538,375,16,0.0446372078773618,1
539,372,16,0.0433336819595945,1
539,373,16,0.0433944428454927,1
545,364,16,0.0472273528531167,1
545,365,16,0.0539989259629416,1
545,366,16,0.0453655977854706,1
546,364,16,0.0647222815521256,1
546,365,16,0.0820327054254291,1
546,366,16,0.0681441283249148,1
547,364,16,0.0623266438614917,1
547,365,16,0.0793442443837218,1
547,366,16,0.067489545753823,1
548,365,16,0.0504574227418686,1
529,373,17,0.0434123472478465,1
529,374,17,0.048846832133514,1
529,375,17,0.0492015193443888,1
530,374,17,0.0491575139296953,1
530,375,17,0.0548037454744548,1
530,376,17,0.0491051659231758,1
531,374,17,0.0422350091140248,1
531,375,17,0.0534598366543229,1
531,376,17,0.0567236067212029,1
531,377,17,0.0471327836543939,1
532,375,17,0.05027958982693,1
532,376,17,0.0565017251376922,1
532,377,17,0.0474224008117196,1
533,375,17,0.044798796257536,1
533,376,17,0.0457471132145184,1
534,373,17,0.0429575813754681,1
534,374,17,0.0431954641906762,1
534,375,17,0.040984220487684,1
535,373,17,0.0426621492748444,1
535,374,17,0.0446881393193587,1
536,373,17,0.0434925074982761,1
536,374,17,0.0465549442773259,1
536,375,17,0.0432425352240123,1
537,372,17,0.0413550684289335,1
537,373,17,0.0427398305373594,1
537,374,17,0.0469767236605723,1
537,375,17,0.0455493132278925,1
538,372,17,0.0421914362381168,1
538,373,17,0.0421470820890274,1
538,374,17,0.0434433575754021,1
538,375,17,0.0420688682631327,1
539,372,17,0.0425308386096577,1
539,373,17,0.0428191013799112,1
539,374,17,0.0411895277256064,1
545,365,17,0.0461816416784685,1
546,364,17,0.0528306008560635,1
546,365,17,0.0676945150708191,1
546,366,17,0.0572534883604245,1
547,365,17,0.0630385161947279,1
529,373,18,0.0441130438602114,1
529,374,18,0.0420255684273331,1
530,373,18,0.042042556388135,1
530,374,18,0.0430002513266613,1
530,375,18,0.0441717934407569,1
530,376,18,0.0426977850640378,1
531,375,18,0.0490940496763875,1
531,376,18,0.0560221207255544,1
531,377,18,0.0478084957451592,1
532,375,18,0.0504198621550795,1
532,376,18,0.0595371039123393,1
532,377,18,0.0500646775246013,1
533,375,18,0.0431258146327352,1
533,376,18,0.0452746781327508,1
537,372,18,0.0444110468632417,1
537,373,18,0.0420384364562028,1
538,371,18,0.0425282352668423,1
538,372,18,0.0456787991200777,1
538,373,18,0.0424466503417878,1
539,372,18,0.0427905186762894,1
539,373,18,0.0425645955585014,1
539,374,18,0.0418353513862911,1
540,372,18,0.041531825403643,1
540,373,18,0.0434805748345301,1
540,374,18,0.0435723920052299,1
541,372,18,0.0414126771884321,1
546,365,18,0.0469713061122834,1
531,375,19,0.0463881086610096,1
531,376,19,0.0573782217327037,1
531,377,19,0.0504879870138015,1
532,375,19,0.050707960019921,1
532,376,19,0.0647755054496859,1
532,377,19,0.0564598824169264,1
533,375,19,0.0427017454972929,1
533,376,19,0.0484831589293696,1
533,377,19,0.0421049230742746,1
537,371,19,0.0424520543732396,1
537,372,19,0.0467398059475294,1
537,373,19,0.0422107545016258,1
538,371,19,0.0436199415345974,1
538,372,19,0.0474198812732938,1
538,373,19,0.0433583123400634,1
539,372,19,0.0427523038745873,1
539,373,19,0.0422006466108813,1
539,374,19,0.0420836286491892,1
540,372,19,0.0431552948543369,1
540,373,19,0.0440975697851589,1
540,374,19,0.0457274002593676,1
540,375,19,0.0420630046592213,1
541,371,19,0.044134305844888,1
541,372,19,0.0459295959214015,1
541,373,19,0.0423879494218557,1
541,374,19,0.0416832464189898,1
542,371,19,0.0458141945734203,1
542,372,19,0.0450638614320477,1
543,371,19,0.0423247419884517,1
531,375,20,0.0449109643780953,1
531,376,20,0.0590232208014477,1
531,377,20,0.0552043034235358,1
532,375,20,0.0508594945766989,1
532,376,20,0.0687431458822697,1
532,377,20,0.0649924560910415,1
532,378,20,0.0434552659088414,1
533,375,20,0.0425677882354122,1
533,376,20,0.0509114532983115,1
533,377,20,0.0482650350265583,1
537,371,20,0.0421261039579289,1
537,372,20,0.0474204003198365,1
537,373,20,0.0438760585629833,1
538,371,20,0.0425999772311583,1
538,372,20,0.0473784116172305,1
538,373,20,0.0450196127142873,1
539,372,20,0.0421488068374347,1
539,373,20,0.0424342986560933,1
539,374,20,0.0422560088720626,1
540,372,20,0.0425080681459666,1
540,373,20,0.0438425719508806,1
540,374,20,0.0473882086207229,1
540,375,20,0.0450279553061133,1
541,371,20,0.0463054883462373,1
541,372,20,0.0467623520317255,1
541,373,20,0.0445074651652726,1
541,374,20,0.0480982967314688,1
541,375,20,0.0480572271737821,1
542,370,20,0.0448229021847275,1
542,371,20,0.0537503242959545,1
542,372,20,0.0493264852062652,1
543,370,20,0.0445316792271605,1
543,371,20,0.0528354939510748,1
543,372,20,0.0460774593052372,1
544,371,20,0.0464356825206838,1
544,372,20,0.0410174502798829,1
530,372,21,0.0433122848065475,1
531,375,21,0.0415071031086822,1
531,376,21,0.0550594678111989,1
531,377,21,0.0564966968743104,1
531,378,21,0.0426318850766939,1
532,374,21,0.0414677447825658,1
532,375,21,0.0484258096931423,1
532,376,21,0.0652236751055849,1
532,377,21,0.0687891355686419,1
532,378,21,0.0504662735667676,1
533,374,21,0.0442683739448324,1
533,375,21,0.0440990674507038,1
533,376,21,0.0506162185435087,1
533,377,21,0.0526973572831789,1
533,378,21,0.0412870895520516,1
534,373,21,0.0412792038293178,1
534,374,21,0.0419156332882541,1
537,372,21,0.0452555950622064,1
537,373,21,0.0446018613484812,1
538,372,21,0.0451055635777082,1
538,373,21,0.0457467996238989,1
538,374,21,0.0410791843780486,1
539,372,21,0.0413908285730277,1
539,373,21,0.0431496745534924,1
539,374,21,0.0429162577012449,1
540,372,21,0.0416317661934087,1
540,373,21,0.0440588143099748,1
540,374,21,0.0484412242941118,1
540,375,21,0.0456326958922743,1
541,370,21,0.0432395290794528,1
541,371,21,0.0473310215865402,1
541,372,21,0.0460611904401662,1
541,373,21,0.0470094992870463,1
541,374,21,0.0539324285314002,1
541,375,21,0.0531509498941015,1
542,369,21,0.0411225301710942,1
542,370,21,0.0533493932821709,1
542,371,21,0.0596280289717939,1
542,372,21,0.0509689377029093,1
542,373,21,0.0430368278877133,1
542,374,21,0.0444077217213279,1
542,375,21,0.0441629426158579,1
543,370,21,0.0519392519605037,1
543,371,21,0.0596436111815428,1
543,372,21,0.0495849433508278,1
544,370,21,0.0412129524042106,1
544,371,21,0.048666560781172,1
544,372,21,0.0432269097603848,1
530,372,22,0.0434591479444416,1
531,372,22,0.0430992918950796,1
531,376,22,0.0469198988776224,1
531,377,22,0.0516441145269276,1
531,378,22,0.0414186191899985,1
532,374,22,0.0414488887948838,1
532,375,22,0.0426763581739493,1
532,376,22,0.0554191184046378,1
532,377,22,0.0641589916984561,1
532,378,22,0.0512293260518024,1
533,373,22,0.0423253123989752,1
533,374,22,0.047699317548955,1
533,375,22,0.0437710813997336,1
533,376,22,0.0459047141277635,1
533,377,22,0.0508130020639886,1
533,378,22,0.0422037419665653,1
534,373,22,0.042979597599652,1
534,374,22,0.0466852790268777,1
537,372,22,0.0430453326815839,1
537,373,22,0.0436007962866026,1
538,372,22,0.0427886641662465,1
538,373,22,0.0454327710588645,1
540,373,22,0.0422148528066187,1
540,374,22,0.0457762501084591,1
540,375,22,0.0418508579017526,1
541,370,22,0.0452030524132334,1
541,371,22,0.0480412178319824,1
541,372,22,0.047157751955789,1
541,373,22,0.0496740355271787,1
541,374,22,0.0561254542414191,1
541,375,22,0.0519100501857451,1
542,369,22,0.0434038019034648,1
542,370,22,0.0555674683946072,1
542,371,22,0.0595538107229306,1
542,372,22,0.0508780450838636,1
542,373,22,0.0456219202697796,1
542,374,22,0.0474883791967184,1
542,375,22,0.0442762218204225,1
543,370,22,0.0529344047578574,1
543,371,22,0.0570558722027825,1
543,372,22,0.0462952858376334,1
544,371,22,0.0443129389565798,1
531,376,23,0.0414449824289769,1
531,377,23,0.0454997280628655,1
532,376,23,0.046969732752451,1
532,377,23,0.0552756777298842,1
532,378,23,0.0470304341642663,1
533,373,23,0.0412724940714071,1
533,374,23,0.0471524749826055,1
533,375,23,0.0439212967132156,1
533,376,23,0.0434224767655303,1
533,377,23,0.0477841762519424,1
534,373,23,0.0425646577359519,1
534,374,23,0.0484647111501665,1
534,375,23,0.0432092946183438,1
535,371,23,0.0410324810026803,1
536,368,23,0.041258593356187,1
536,371,23,0.0420263064466359,1
538,372,23,0.0411610153095373,1
538,373,23,0.0434610943689765,1
540,373,23,0.0413316437503293,1
540,374,23,0.0422905552041899,1
541,370,23,0.0437587810780199,1
541,371,23,0.0468362458764996,1
541,372,23,0.0492352898100696,1
541,373,23,0.0498599136635283,1
541,374,23,0.0514794361978041,1
541,375,23,0.0443785037263649,1
542,369,23,0.0414592156583885,1
542,370,23,0.0503369823170359,1
542,371,23,0.0529562750002011,1
542,372,23,0.0500254084096094,1
542,373,23,0.0460661105688517,1
542,374,23,0.0457923189243418,1
543,370,23,0.049120558897206,1
543,371,23,0.0494078835989684,1
543,372,23,0.0423614537178742,1
531,361,24,0.0410679654032987,1
532,377,24,0.044511222845972,1
533,375,24,0.0423852109106698,1
533,376,24,0.0445999095172115,1
533,377,24,0.0458590164050715,1
534,374,24,0.0443731997195072,1
534,375,24,0.0492169501655629,1
534,376,24,0.0515080756721415,1
534,377,24,0.0460020569814485,1
535,368,24,0.0424136043785728,1
535,369,24,0.0412726454599821,1
535,371,24,0.04227926323852,1
535,372,24,0.042706241197295,1
535,375,24,0.045669191352304,1
535,376,24,0.049173404323329,1
535,377,24,0.0423016606375085,1
536,368,24,0.0419975263971933,1
536,369,24,0.0418242513597073,1
536,370,24,0.0421361091207118,1
536,371,24,0.0449142949267439,1
536,372,24,0.0425810806929652,1
538,372,24,0.0415255860316617,1
538,373,24,0.0427414093039266,1
539,369,24,0.0440884026662729,1
539,370,24,0.0412641271492744,1
539,372,24,0.0413546169665761,1
539,373,24,0.0435879147408959,1
540,369,24,0.0423946564763989,1
540,372,24,0.0443640353039887,1
540,373,24,0.0448594571188401,1
541,370,24,0.0413779064768098,1
541,371,24,0.045325393305355,1
541,372,24,0.0511015919416986,1
541,373,24,0.0491740423180376,1
541,374,24,0.0441772082856784,1
542,370,24,0.0441009111472771,1
542,371,24,0.0471768755768445,1
542,372,24,0.0489195581235672,1
542,373,24,0.0445010338542052,1
543,370,24,0.0440854722160009,1
543,371,24,0.0433099166566966,1
533,376,25,0.0447439935934085,1
533,377,25,0.041585627821829,1
534,375,25,0.0542468085341979,1
534,376,25,0.0691437038313507,1
534,377,25,0.056107812065704,1
535,368,25,0.0424872089630341,1
535,375,25,0.0583670648705234,1
535,376,25,0.0762449039361635,1
535,377,25,0.0604121298754799,1
536,371,25,0.0425968737653721,1
536,375,25,0.0426555692785694,1
536,376,25,0.0533086373151037,1
536,377,25,0.0445634464975907,1
538,368,25,0.0414038696174117,1
538,369,25,0.0458335344638686,1
538,370,25,0.0413604589435482,1
538,372,25,0.0428408175303125,1
538,373,25,0.0425717675922391,1
539,368,25,0.0475171916865699,1
539,369,25,0.053981418955597,1
539,370,25,0.045593140220337,1
539,371,25,0.0424121067130279,1
539,372,25,0.0523478497242608,1
539,373,25,0.0547171187691815,1
540,368,25,0.0432240036404194,1
540,369,25,0.0481054822820435,1
540,370,25,0.0421847318869409,1
540,371,25,0.0423016606375085,1
540,372,25,0.0545463848970605,1
540,373,25,0.0562224294371364,1
540,374,25,0.0415256319889076,1
541,371,25,0.04302817981537,1
541,372,25,0.0512730340960809,1
541,373,25,0.049517737637025,1
542,371,25,0.0423701099003197,1
542,372,25,0.0446166325480073,1
554,346,25,0.0429519989217673,1
555,346,25,0.0415683181603053,1
532,370,26,0.0419662105891204,1
534,375,26,0.050293285086227,1
534,376,26,0.0730154774488551,1
534,377,26,0.0555662032186595,1
535,368,26,0.0438809489546273,1
535,369,26,0.0419192828342571,1
535,375,26,0.0615779246304627,1
535,376,26,0.0904179888295994,1
535,377,26,0.0681425874054914,1
536,375,26,0.0433641083597896,1
536,376,26,0.0603386415358172,1
536,377,26,0.047734336970379,1
538,368,26,0.0493151743170234,1
538,369,26,0.0533378120561882,1
538,370,26,0.0446567721473051,1
538,372,26,0.0426683453929472,1
538,373,26,0.0413720293560613,1
539,368,26,0.0592581055821985,1
539,369,26,0.0647189401900074,1
539,370,26,0.0510380574008381,1
539,371,26,0.047005741606347,1
539,372,26,0.0600006611355337,1
539,373,26,0.0623940117773391,1
539,374,26,0.041814554380809,1
540,368,26,0.0495408243947031,1
540,369,26,0.0533830069525419,1
540,370,26,0.0445109200688221,1
540,371,26,0.045807176631625,1
540,372,26,0.062585410189939,1
540,373,26,0.0657799524241939,1
540,374,26,0.0430535752488158,1
541,371,26,0.0410223109344853,1
541,372,26,0.0488155595793197,1
541,373,26,0.0484752867234729,1
545,368,26,0.0412517511332732,1
545,369,26,0.0428994400525898,1
545,370,26,0.041460889042815,1
555,345,26,0.0451807063782256,1
555,346,26,0.0428761343221516,1
556,345,26,0.0445539874150245,1
557,345,26,0.0430757915221879,1
534,375,27,0.0433349092883984,1
534,376,27,0.0622938520148132,1
534,377,27,0.0477809376177857,1
535,368,27,0.0410002190160141,1
535,375,27,0.0560454994469127,1
535,376,27,0.0824497539157087,1
535,377,27,0.0632264759239829,1
536,369,27,0.0413032827228351,1
536,376,27,0.0570379218431827,1
536,377,27,0.0458463970860035,1
537,368,27,0.0419369547470137,1
537,369,27,0.0440159334961236,1
538,368,27,0.0571907594230521,1
538,369,27,0.0591422392550229,1
538,370,27,0.0490629987983207,1
538,371,27,0.0419091425031037,1
538,372,27,0.0417363486650166,1
539,367,27,0.043754861195276,1
539,368,27,0.0674758667147304,1
539,369,27,0.0702624221462626,1
539,370,27,0.0569039862082413,1
539,371,27,0.0509608330074154,1
539,372,27,0.0594451623867386,1
539,373,27,0.0588320981323235,1
540,368,27,0.0539438421486035,1
540,369,27,0.056614985418685,1
540,370,27,0.0497627924859708,1
540,371,27,0.0502628181355208,1
540,372,27,0.0629188705599137,1
540,373,27,0.0635690196084538,1
541,372,27,0.0447020941019271,1
541,373,27,0.0440646373633751,1
545,368,27,0.0441708553722658,1
545,369,27,0.0451336326415221,1
545,370,27,0.0414663309214106,1
546,369,27,0.0429090261934243,1
555,345,27,0.048651038045506,1
555,346,27,0.0428778022998433,1
556,343,27,0.043808974500714,1
556,344,27,0.0518428931325558,1
556,345,27,0.0595583361599743,1
556,346,27,0.0506863547075835,1
557,343,27,0.0445625597930804,1
557,344,27,0.0514860864816318,1
557,345,27,0.0564970861592174,1
557,346,27,0.048758102208396,1
558,345,27,0.0497449827014763,1
534,376,28,0.0455424899285507,1
535,375,28,0.043608995599956,1
535,376,28,0.0586762976617732,1
535,377,28,0.0489659587217856,1
536,376,28,0.0446388758550535,1
537,368,28,0.0432348495504668,1
537,369,28,0.0456102309091005,1
538,368,28,0.0580581078227494,1
538,369,28,0.0593480520226508,1
538,370,28,0.0489144433524282,1
538,371,28,0.0412500723421119,1
539,367,28,0.0449844337941861,1
539,368,28,0.0659182242604603,1
539,369,28,0.0669010388889567,1
539,370,28,0.0570696539698366,1
539,371,28,0.0520198825968625,1
539,372,28,0.0519780669097708,1
539,373,28,0.0470812250311579,1
540,368,28,0.052774003155976,1
540,369,28,0.0543819877181477,1
540,370,28,0.0523511802729095,1
540,371,28,0.0533229976027835,1
540,372,28,0.0556138257389471,1
540,373,28,0.0507608162595136,1
541,370,28,0.0412845700136258,1
541,371,28,0.0412317678413815,1
545,368,28,0.0429584410463044,1
545,369,28,0.0429931901309875,1
546,369,28,0.0419094560937232,1
550,362,28,0.0416938706529095,1
555,345,28,0.0448983423556599,1
556,343,28,0.049059462793749,1
556,344,28,0.0573107619023644,1
556,345,28,0.0666847749029232,1
556,346,28,0.0559816837558415,1
557,343,28,0.0510879831901587,1
557,344,28,0.057901950507701,1
557,345,28,0.0646823744424251,1
557,346,28,0.0544069722397473,1
558,343,28,0.0457516278380924,1
558,344,28,0.0494821234747709,1
558,345,28,0.0510068929813402,1
558,346,28,0.0444395944230871,1
537,369,29,0.0424454230129839,1
538,368,29,0.0506728324638006,1
538,369,29,0.0520460511933875,1
538,370,29,0.0437364431531143,1
539,367,29,0.0422307972676006,1
539,368,29,0.055300954215164,1
539,369,29,0.0557097574348443,1
539,370,29,0.0501781216345779,1
539,371,29,0.0475212034838058,1
539,372,29,0.0413581800048219,1
540,367,29,0.0414620785244752,1
540,368,29,0.0484795850776541,1
540,369,29,0.0486812292527365,1
540,370,29,0.0500447645202622,1
540,371,29,0.051277218908831,1
540,372,29,0.0444984359181246,1
548,363,29,0.0415271215443503,1
548,364,29,0.0417467782564829,1
549,362,29,0.0423367368296481,1
549,363,29,0.0447776072637795,1
549,364,29,0.0428212775906759,1
550,362,29,0.0439938821281635,1
550,363,29,0.0436682020495937,1
556,343,29,0.0482884786287344,1
556,344,29,0.0563511800133862,1
556,345,29,0.0640181408496809,1
556,346,29,0.0556030284895131,1
556,347,29,0.0411175884154694,1
557,343,29,0.0541645234369843,1
557,344,29,0.0609815293394951,1
557,345,29,0.0661134668615167,1
557,346,29,0.0559641172744139,1
557,347,29,0.0418120429524855,1
558,343,29,0.0464954810077842,1
558,344,29,0.0496881633252613,1
558,345,29,0.0511394012382893,1
558,346,29,0.0454725159665205,1
538,368,30,0.0446507274177772,1
538,369,30,0.0436918213706514,1
539,367,30,0.0414785068882234,1
539,368,30,0.0451724502941567,1
539,369,30,0.043392761350964,1
540,367,30,0.0426480431037011,1
540,368,30,0.0433064266093708,1
540,370,30,0.042563279018573,1
540,371,30,0.0429672242870182,1
548,363,30,0.042064269835169,1
549,362,30,0.0453179211978348,1
549,363,30,0.0460164497095372,1
549,364,30,0.0431495556053264,1
550,362,30,0.044358493400799,1
550,363,30,0.043530357345378,1
556,344,30,0.0456554095852498,1
556,345,30,0.0506327307116465,1
556,346,30,0.0473914472548796,1
557,343,30,0.0488516387207683,1
557,344,30,0.0543733531626414,1
557,345,30,0.0566599694523808,1
557,346,30,0.0500692894694021,1
558,343,30,0.04383683270187,1
558,344,30,0.0461446271718962,1
558,345,30,0.046631022442967,1
535,361,31,0.0434052455016615,1
538,366,31,0.0416471916078479,1
538,367,31,0.0478397466724142,1
538,368,31,0.0430261576965476,1
539,367,31,0.0465916668202179,1
539,368,31,0.0416930461258496,1
540,367,31,0.0422067345942877,1
548,362,31,0.041226471944626,1
548,363,31,0.0409845340783035,1
549,362,31,0.0458762476689403,1
549,363,31,0.0451869511569418,1
557,344,31,0.0445391107841695,1
557,345,31,0.0452380042504721,1
557,346,31,0.041907442085003,1
558,344,31,0.0426773665299931,1
534,360,32,0.0455881714310381,1
534,361,32,0.0438463215214777,1
535,360,32,0.0527104145477673,1
535,361,32,0.0519971797173567,1
536,360,32,0.0434148397525982,1
536,361,32,0.0439090774925242,1
538,366,32,0.0469589949771001,1
538,367,32,0.0548545255278768,1
538,368,32,0.0447145971761965,1
539,366,32,0.047634539459086,1
539,367,32,0.0546949565631575,1
539,368,32,0.0437048543049331,1
540,367,32,0.0419562162398071,1
548,362,32,0.0412777575277536,1
