x,y,z,signal,cytoplasm.p
728,819,13,0.0450537075840572,1
729,819,13,0.0442572387744723,1
728,819,14,0.048458147374096,1
729,819,14,0.051002951471657,1
731,816,14,0.0434909584687504,1
731,817,14,0.0410359737533735,1
728,819,15,0.0458590001848671,1
729,819,15,0.050923640078594,1
731,816,15,0.0458469053190765,1
731,817,15,0.0461845937556798,1
732,816,15,0.0436706485970994,1
732,817,15,0.0429708116555707,1
733,814,15,0.0432543002789789,1
729,819,16,0.0460734150675924,1
731,816,16,0.0454202977216365,1
731,817,16,0.04811306252426,1
732,816,16,0.0428609549141467,1
732,817,16,0.0447204040093923,1
733,813,16,0.0417411768792102,1
733,814,16,0.0456676828732894,1
729,818,17,0.0415947138396926,1
729,819,17,0.0427452237553415,1
731,816,17,0.0419205317900003,1
731,817,17,0.0455048536474741,1
732,813,17,0.0434218631011283,1
733,813,17,0.0486900854843703,1
733,814,17,0.0461792194612695,1
734,813,17,0.0421011545801056,1
734,814,17,0.0413141664800262,1
728,817,18,0.0421186237403065,1
728,818,18,0.0420276770539126,1
728,819,18,0.0421164583430114,1
728,820,18,0.0429335646594012,1
728,821,18,0.0418127647515839,1
729,816,18,0.0426238020081392,1
729,817,18,0.0495197543491126,1
729,818,18,0.0457936597945769,1
729,819,18,0.0445591400333072,1
729,820,18,0.0458623199200461,1
729,821,18,0.0428843228220353,1
730,816,18,0.0438654208122265,1
730,817,18,0.0473479879204028,1
731,816,18,0.0441115840418102,1
731,817,18,0.0460311452147758,1
732,813,18,0.0457386787082004,1
733,813,18,0.0565508182898506,1
733,814,18,0.0470152358326895,1
734,813,18,0.048795273510278,1
734,814,18,0.0432159232752321,1
742,824,18,0.0451073586136682,1
742,825,18,0.0419119485984749,1
743,824,18,0.0463231575556264,1
750,839,18,0.0415490620742467,1
727,820,19,0.0428475381016928,1
727,821,19,0.0423698044198024,1
728,816,19,0.0438075417159869,1
728,817,19,0.0484684147635176,1
728,818,19,0.0438904702146439,1
728,819,19,0.0445284892536171,1
728,820,19,0.0510037949222888,1
728,821,19,0.0488283627273716,1
729,815,19,0.0414602943019849,1
729,816,19,0.0602088744934214,1
729,817,19,0.0618972031350065,1
729,818,19,0.0474198109857412,1
729,819,19,0.0446503110991961,1
729,820,19,0.0505269371314391,1
729,821,19,0.0455895177080081,1
730,815,19,0.0438486518241848,1
730,816,19,0.0622910621396465,1
730,817,19,0.0594875133405775,1
731,816,19,0.0529125291087789,1
731,817,19,0.0495116009930052,1
733,813,19,0.0550953631236636,1
733,814,19,0.0436958304645198,1
734,813,19,0.0475435873659573,1
742,823,19,0.0420065880847503,1
742,824,19,0.0492011030258078,1
742,825,19,0.0431936448244096,1
743,823,19,0.0440345624009432,1
743,824,19,0.0500430505853245,1
743,825,19,0.0430973481739121,1
744,823,19,0.0416286843545617,1
744,824,19,0.0433110115204975,1
750,838,19,0.0417464619624959,1
750,839,19,0.0456166595168005,1
727,819,20,0.04140272338963,1
727,820,20,0.0476006662654437,1
727,821,20,0.0453571362454786,1
728,816,20,0.0487199685077161,1
728,817,20,0.0498262351123394,1
728,818,20,0.0439473166245331,1
728,819,20,0.046463727254191,1
728,820,20,0.0556188431888593,1
728,821,20,0.050526910097765,1
729,815,20,0.0532121811659291,1
729,816,20,0.0819428941533473,1
729,817,20,0.0734744119137791,1
729,818,20,0.049973444281262,1
729,819,20,0.046998593902916,1
729,820,20,0.0523787113666089,1
729,821,20,0.0432732184441113,1
730,815,20,0.0605769541864434,1
730,816,20,0.0931387821455256,1
730,817,20,0.0788881484545779,1
730,818,20,0.0485337335268685,1
730,819,20,0.0426155405173354,1
730,820,20,0.0433008414523026,1
731,815,20,0.0473670736943146,1
731,816,20,0.0689987979314611,1
731,817,20,0.0583138625999024,1
733,813,20,0.0469588706221993,1
742,823,20,0.0473626888323763,1
742,824,20,0.052917400576851,1
742,825,20,0.0428276359108233,1
743,823,20,0.050493058531062,1
743,824,20,0.0535826938896197,1
744,823,20,0.0466716486483985,1
744,824,20,0.0462489879673765,1
750,838,20,0.0440095481423021,1
750,839,20,0.0471029438849267,1
727,820,21,0.0462123303053023,1
727,821,21,0.0434243231654711,1
728,816,21,0.0475999796101216,1
728,817,21,0.0458935762540359,1
728,818,21,0.0420394312954095,1
728,819,21,0.0438012644968618,1
728,820,21,0.0511951879281539,1
728,821,21,0.0466364994653388,1
729,815,21,0.0576011197823603,1
729,816,21,0.0897831084001887,1
729,817,21,0.0710859381467807,1
729,818,21,0.0465155724343724,1
729,819,21,0.0443131579293399,1
729,820,21,0.0477296979919041,1
730,815,21,0.073436732378824,1
730,816,21,0.114585233800622,1
730,817,21,0.0872309241095994,1
730,818,21,0.0499958822307617,1
730,819,21,0.044689131455198,1
730,820,21,0.0429928413965916,1
731,815,21,0.052909955503005,1
731,816,21,0.0794442311307334,1
731,817,21,0.0607430815204984,1
738,831,21,0.0424212224679331,1
738,832,21,0.042170014754763,1
739,831,21,0.0461661784168856,1
739,832,21,0.0424356341195937,1
741,824,21,0.0411306267564859,1
742,823,21,0.0484622240521496,1
742,824,21,0.050249025554997,1
743,822,21,0.0440164255089922,1
743,823,21,0.0562115889338239,1
743,824,21,0.0525568254317581,1
744,822,21,0.0444868898359181,1
744,823,21,0.054108877322225,1
744,824,21,0.0483700608504214,1
750,838,21,0.0429716524028351,1
750,839,21,0.0456252400049586,1
752,845,21,0.0416955521474383,1
728,816,22,0.0427592244951559,1
728,820,22,0.0426032564158262,1
728,822,22,0.0422728859948007,1
728,823,22,0.0441395341574581,1
729,815,22,0.0539351805594232,1
729,816,22,0.0818895242739469,1
729,817,22,0.0609641304668469,1
729,818,22,0.0427789807041853,1
729,819,22,0.0419362924219983,1
729,820,22,0.0419706305948351,1
730,815,22,0.0746098370392824,1
730,816,22,0.114542455714733,1
730,817,22,0.082574243984921,1
730,818,22,0.0498925379014274,1
730,819,22,0.046239764077775,1
730,820,22,0.0422782386622717,1
731,815,22,0.0510738013247279,1
731,816,22,0.0773068407220041,1
731,817,22,0.055977482722887,1
737,832,22,0.0488957306432189,1
737,833,22,0.0461548404939697,1
738,831,22,0.0477649931568039,1
738,832,22,0.0611091336879632,1
738,833,22,0.0564273176531103,1
739,831,22,0.0476697535229635,1
739,832,22,0.0523755754604137,1
739,833,22,0.0460438780752751,1
742,823,22,0.0421297291736251,1
742,824,22,0.0411029037237004,1
743,822,22,0.0435706185962092,1
743,823,22,0.0531294256827863,1
743,824,22,0.0452376528127089,1
744,822,22,0.0449081745029286,1
744,823,22,0.0537304166983501,1
744,824,22,0.0452704230324481,1
751,838,22,0.0417576782338784,1
751,844,22,0.0413188460090122,1
751,845,22,0.0492662974342578,1
752,844,22,0.0415617435707651,1
752,845,22,0.0507370158128394,1
752,846,22,0.0459213722777415,1
752,848,22,0.0411263824696529,1
752,849,22,0.0472379122062186,1
753,845,22,0.0522310858791052,1
753,846,22,0.0478683969602212,1
753,849,22,0.0446773393665573,1
754,845,22,0.0449993509755523,1
754,846,22,0.0431602447200639,1
728,823,23,0.0420793032613338,1
729,816,23,0.0667832802045943,1
729,817,23,0.0511761021542421,1
730,815,23,0.0669350634711739,1
730,816,23,0.0948611515895325,1
730,817,23,0.0699840888445046,1
730,818,23,0.0472121112676613,1
730,819,23,0.043608006167484,1
731,815,23,0.0481557919495362,1
731,816,23,0.0683419445317452,1
731,817,23,0.0524076914652398,1
737,832,23,0.0516708616440782,1
737,833,23,0.0493054854482274,1
738,831,23,0.0424333335539281,1
738,832,23,0.064358467772876,1
738,833,23,0.0612052005522309,1
739,832,23,0.0512025681211821,1
739,833,23,0.0477467724604631,1
743,822,23,0.041142302600328,1
743,823,23,0.0462129737067458,1
744,822,23,0.0424768983197339,1
744,823,23,0.0487602324619147,1
750,844,23,0.0413428978688554,1
750,845,23,0.0491978806118555,1
751,844,23,0.0482952046068495,1
751,845,23,0.0579102228119744,1
751,846,23,0.0532118675753095,1
752,844,23,0.0477994178373978,1
752,845,23,0.0616554193606264,1
752,846,23,0.0582392929132759,1
752,847,23,0.044872081844643,1
752,848,23,0.0436259835607579,1
752,849,23,0.0482175693015805,1
753,844,23,0.0414344014489357,1
753,845,23,0.0599947732013156,1
753,846,23,0.0603104670406743,1
753,847,23,0.0469901431763936,1
753,848,23,0.0437084930374664,1
753,849,23,0.0475772821373506,1
754,845,23,0.0535968433146416,1
754,846,23,0.0561053790350354,1
754,847,23,0.0438988182132048,1
726,842,24,0.048388973608819,1
729,816,24,0.0511339782832657,1
729,817,24,0.0439508553324722,1
730,815,24,0.0529603408647852,1
730,816,24,0.0679940103326595,1
730,817,24,0.0567188379810923,1
730,818,24,0.0451422996374373,1
731,815,24,0.0429581517859916,1
731,816,24,0.056673361934528,1
731,817,24,0.0510519527093235,1
731,818,24,0.0437891101569882,1
735,832,24,0.0461753482391389,1
735,833,24,0.0462643809414068,1
736,832,24,0.0440748750157552,1
736,833,24,0.0434791798969468,1
737,832,24,0.0438469054488381,1
737,833,24,0.0425730030311453,1
738,832,24,0.0521186582352746,1
738,833,24,0.0507366805952806,1
740,814,24,0.0445106740623878,1
749,845,24,0.0426355373260643,1
750,844,24,0.0582312206581908,1
750,845,24,0.069507171579572,1
750,846,24,0.0564673977783251,1
751,844,24,0.0700087381485454,1
751,845,24,0.0872443868792993,1
751,846,24,0.0712570018297256,1
751,847,24,0.0445841651054179,1
752,844,24,0.0608598940262674,1
752,845,24,0.0796417175267398,1
752,846,24,0.0718299372983126,1
752,847,24,0.050524428406483,1
752,848,24,0.0436174192928043,1
752,849,24,0.044909464009183,1
753,844,24,0.0439977100964155,1
753,845,24,0.0632044056324509,1
753,846,24,0.0672164299511655,1
753,847,24,0.0549771448668416,1
753,848,24,0.0492395827575161,1
753,849,24,0.0481694872088333,1
754,845,24,0.0566038583584271,1
754,846,24,0.064720237806364,1
754,847,24,0.0548700807039517,1
754,848,24,0.0455607646922396,1
755,845,24,0.0442013709835854,1
755,846,24,0.0473200675417964,1
725,842,25,0.0466275999798264,1
726,841,25,0.0438327668372859,1
726,842,25,0.0579345585253957,1
726,843,25,0.0446612705506746,1
730,816,25,0.0446194927107266,1
730,817,25,0.0443308082151573,1
730,818,25,0.0410756943307228,1
731,816,25,0.0447027320966357,1
731,817,25,0.046555987777146,1
731,818,25,0.0429201397368451,1
735,832,25,0.0512284069068831,1
735,833,25,0.05297813983581,1
736,832,25,0.0440771161073378,1
736,833,25,0.0450513583577783,1
740,814,25,0.0433024905064225,1
741,851,25,0.0442229627790859,1
749,844,25,0.0479780293221503,1
749,845,25,0.0534100730670469,1
750,843,25,0.0464379263156338,1
750,844,25,0.0837105125610561,1
750,845,25,0.0977384752852096,1
750,846,25,0.0682544635623704,1
751,843,25,0.0523811660242168,1
751,844,25,0.0996006196377626,1
751,845,25,0.119284183778117,1
751,846,25,0.0856471400924785,1
751,847,25,0.0479891131285297,1
752,843,25,0.0417689512759764,1
752,844,25,0.0746347945272079,1
752,845,25,0.0915556685635223,1
752,846,25,0.0759824880617132,1
752,847,25,0.055708151634603,1
752,848,25,0.0496453798326369,1
752,849,25,0.0443383073563515,1
753,844,25,0.0434152858082208,1
753,845,25,0.0575897872661793,1
753,846,25,0.0649509539945692,1
753,847,25,0.064027467467244,1
753,848,25,0.059983786716163,1
753,849,25,0.0496702129656615,1
754,845,25,0.0497790721645115,1
754,846,25,0.0635127517191903,1
754,847,25,0.064767546736032,1
754,848,25,0.0570206689523746,1
754,849,25,0.0435517139479139,1
755,845,25,0.0433725753065164,1
755,846,25,0.0486827863923644,1
755,847,25,0.047109783404473,1
755,848,25,0.0412554141961133,1
725,842,26,0.0456114149840259,1
726,841,26,0.0445495187486964,1
726,842,26,0.0582040842561332,1
726,843,26,0.0441557922090595,1
731,817,26,0.0427672940468735,1
731,818,26,0.0430599416790654,1
735,832,26,0.0426918809096152,1
735,833,26,0.0454578853420997,1
738,814,26,0.043686314611238,1
738,815,26,0.0438223291357174,1
745,816,26,0.0416141186109588,1
746,816,26,0.0457699837028036,1
749,844,26,0.0506041669315967,1
749,845,26,0.0555590284815544,1
750,843,26,0.0539141429542416,1
750,844,26,0.0992801624650282,1
750,845,26,0.110042387070827,1
750,846,26,0.0670337904489727,1
751,819,26,0.04571626238564,1
751,820,26,0.0663965634966505,1
751,821,26,0.0728158337656559,1
751,822,26,0.050719384450594,1
751,843,26,0.0630123259712637,1
751,844,26,0.120173580842407,1
751,845,26,0.13358238051527,1
751,846,26,0.0838897620405173,1
751,847,26,0.0482917713302393,1
751,848,26,0.0427642987157837,1
752,819,26,0.0539966497275827,1
752,820,26,0.0932910249845649,1
752,821,26,0.105345102367657,1
752,822,26,0.0687409074940545,1
752,843,26,0.0456135993048929,1
752,844,26,0.0807174739267783,1
752,845,26,0.0911510934104706,1
752,846,26,0.0710589206928891,1
752,847,26,0.0650056755576744,1
752,848,26,0.0650514543813887,1
752,849,26,0.0502127085172164,1
753,821,26,0.0969885395388462,1
753,845,26,0.0472556462964256,1
753,846,26,0.0593115944097649,1
753,847,26,0.0780245144817013,1
753,848,26,0.078777791590183,1
753,849,26,0.0564969672110513,1
754,846,26,0.0554342410419271,1
754,847,26,0.0717672083609401,1
754,848,26,0.0679433762610776,1
754,849,26,0.0479717466962904,1
755,846,26,0.0419090370717747,1
755,847,26,0.0467097228749953,1
755,848,26,0.042805946794096,1
726,842,27,0.0452946614246426,1
731,818,27,0.0424840676501042,1
737,853,27,0.0422100813631408,1
738,814,27,0.044778026285728,1
738,815,27,0.0437121047363257,1
738,852,27,0.0417776588224028,1
738,853,27,0.0548424793226996,1
738,854,27,0.0496745329467821,1
739,853,27,0.0492453463368333,1
739,854,27,0.0449571189698795,1
745,816,27,0.0451787004796077,1
746,815,27,0.0418399254839482,1
746,816,27,0.0463148095570656,1
749,844,27,0.0546255665284878,1
749,845,27,0.0546807638842571,1
750,843,27,0.0620860766024459,1
750,844,27,0.104710135430489,1
750,845,27,0.105362858084803,1
750,846,27,0.0598459311984776,1
751,819,27,0.0510896322442785,1
751,820,27,0.0957414761527959,1
751,821,27,0.112231379356671,1
751,822,27,0.0639642897708816,1
751,843,27,0.0727380308516074,1
751,844,27,0.128203566074668,1
751,845,27,0.128379814816305,1
751,846,27,0.0761545087367212,1
751,847,27,0.0501189611421861,1
751,848,27,0.048236303637729,1
752,819,27,0.0691278026242474,1
752,820,27,0.155410688223708,1
752,821,27,0.184158881184796,1
752,822,27,0.100327749776659,1
752,843,27,0.0494060507158647,1
752,844,27,0.081824237951005,1
752,845,27,0.0837512090540403,1
752,846,27,0.0692523251338686,1
752,847,27,0.0821027010143986,1
752,848,27,0.0858574891106198,1
752,849,27,0.0576581554279681,1
753,819,27,0.0606550274372328,1
753,820,27,0.129802607897449,1
753,821,27,0.154229846525723,1
753,822,27,0.0848910244482168,1
753,845,27,0.0427776803844612,1
753,846,27,0.0624499768894527,1
753,847,27,0.101134250782701,1
753,848,27,0.105283357456021,1
753,849,27,0.0659665712832137,1
754,821,27,0.0692302278086625,1
754,822,27,0.0453857162457329,1
754,846,27,0.0520235916169485,1
754,847,27,0.0817754475759964,1
754,848,27,0.0822733808191714,1
754,849,27,0.0534267690641686,1
755,847,27,0.0459832091038687,1
755,848,27,0.0444246231743727,1
737,853,28,0.0476316468559577,1
737,854,28,0.043528548792581,1
738,814,28,0.0412203677410152,1
738,852,28,0.0448475082348897,1
738,853,28,0.0676013137760056,1
738,854,28,0.0618492399904253,1
739,853,28,0.0560085984817716,1
739,854,28,0.0513249928176935,1
745,816,28,0.0440308858212662,1
746,816,28,0.043151196549344,1
749,843,28,0.0500631744523216,1
749,844,28,0.0569888232842895,1
749,845,28,0.0480174984863305,1
750,842,28,0.0418722523514322,1
750,843,28,0.0682927973122386,1
750,844,28,0.095280476315171,1
750,845,28,0.083017417817847,1
750,846,28,0.0465096899068891,1
751,819,28,0.047086037025147,1
751,820,28,0.102678998174427,1
751,821,28,0.129178270600936,1
751,822,28,0.066453280144904,1
751,843,28,0.0731853786838139,1
751,844,28,0.111156066308888,1
751,845,28,0.0996098651543035,1
751,846,28,0.0620469967231727,1
751,847,28,0.0497994339278406,1
751,848,28,0.048388465375746,1
752,819,28,0.0692902425651557,1
752,820,28,0.180842119709953,1
752,821,28,0.227023431577598,1
752,822,28,0.116263365340338,1
752,843,28,0.0489210720093165,1
752,844,28,0.0710115576958728,1
752,845,28,0.0676241734508213,1
752,846,28,0.0693707866937574,1
752,847,28,0.0971202584125117,1
752,848,28,0.0978279783734068,1
752,849,28,0.0569194819102331,1
753,819,28,0.0556645463182861,1
753,820,28,0.136324222249847,1
753,821,28,0.173287029623803,1
753,822,28,0.0881803899977309,1
753,846,28,0.07117717139012,1
753,847,28,0.122099524665827,1
753,848,28,0.122866545694219,1
753,849,28,0.0670093033469765,1
754,820,28,0.0551679052847329,1
754,821,28,0.064960350899685,1
754,846,28,0.0527666499966219,1
754,847,28,0.0876292166367912,1
754,848,28,0.0879299121937615,1
754,849,28,0.0516831727792615,1
755,847,28,0.0414704562600776,1
755,848,28,0.0412516402952095,1
757,816,28,0.0416340397254002,1
757,817,28,0.0430836312876757,1
758,816,28,0.0452668762144067,1
759,829,28,0.0428666346890742,1
760,828,28,0.0442086484486521,1
760,829,28,0.05035435415601,1
760,830,28,0.0456942029075776,1
761,829,28,0.044317461690256,1
736,849,29,0.0415083655812625,1
736,850,29,0.0470067742926974,1
737,850,29,0.0461558948072594,1
737,853,29,0.0476056404614774,1
737,854,29,0.0448407552231005,1
738,852,29,0.0461077478336944,1
738,853,29,0.0685438968907122,1
738,854,29,0.0646086373929607,1
738,855,29,0.0412582662487304,1
739,853,29,0.0550528661879846,1
739,854,29,0.0514901685664203,1
745,816,29,0.0412050477579049,1
747,815,29,0.0416179871297219,1
749,842,29,0.0437599921866194,1
749,843,29,0.0572049791356266,1
749,844,29,0.0569459316569687,1
749,845,29,0.04282309966031,1
750,816,29,0.0440470465516408,1
750,817,29,0.0449295284020971,1
750,842,29,0.0478906024201237,1
750,843,29,0.0683743416867819,1
750,844,29,0.076888013415969,1
750,845,29,0.0600412819342304,1
751,816,29,0.0467469914981041,1
751,817,29,0.0464741406254528,1
751,819,29,0.04397634268041,1
751,820,29,0.088779039897118,1
751,821,29,0.113450111452269,1
751,822,29,0.0593346649472385,1
751,842,29,0.0431368146347249,1
751,843,29,0.0641298493977806,1
751,844,29,0.0797012402703644,1
751,845,29,0.0686013001942878,1
751,846,29,0.0520145245226567,1
751,847,29,0.051556357814077,1
751,848,29,0.0475272698402729,1
752,815,29,0.0432037202747452,1
752,816,29,0.0466371428667823,1
752,817,29,0.0444961326490916,1
752,819,29,0.0638925423998307,1
752,820,29,0.15797145840919,1
752,821,29,0.20261304033502,1
752,822,29,0.107886278546154,1
752,843,29,0.0461651349170654,1
752,844,29,0.0554152147420983,1
752,845,29,0.0552305963749616,1
752,846,29,0.0705770454521272,1
752,847,29,0.102369559927254,1
752,848,29,0.0949569156766503,1
752,849,29,0.0528844573415976,1
753,815,29,0.0465815021587578,1
753,816,29,0.0481751156197801,1
753,817,29,0.0451093672156535,1
753,819,29,0.0500187635325166,1
753,820,29,0.111537122165476,1
753,821,29,0.145906870333609,1
753,822,29,0.0778892325697899,1
753,845,29,0.0431575413526543,1
753,846,29,0.077672173793738,1
753,847,29,0.125750379098619,1
753,848,29,0.11780644745774,1
753,849,29,0.0619978440969313,1
754,815,29,0.0424584964977767,1
754,816,29,0.0445593184555563,1
754,817,29,0.0435764389462421,1
754,820,29,0.049851695426603,1
754,821,29,0.058039070709451,1
754,846,29,0.0531807572231598,1
754,847,29,0.0821362065500732,1
754,848,29,0.0787211668564214,1
757,816,29,0.0433095598121986,1
757,817,29,0.0444326035149659,1
758,816,29,0.0466051349966526,1
758,817,29,0.0468750986729105,1
759,816,29,0.0417352835382572,1
759,828,29,0.0452727235981137,1
759,829,29,0.0527704617446694,1
759,830,29,0.0442020657490097,1
760,828,29,0.0539966821679917,1
760,829,29,0.0692548662992336,1
760,830,29,0.0577844026859967,1
761,828,29,0.045623374681446,1
761,829,29,0.0583934281095019,1
761,830,29,0.0494520782493806,1
723,826,30,0.0519464861716918,1
723,827,30,0.0485827563914742,1
724,826,30,0.055808035653653,1
724,827,30,0.0526507241953632,1
725,826,30,0.0414481886227247,1
726,824,30,0.0412669008042367,1
730,842,30,0.0478425419543158,1
730,843,30,0.053877139261139,1
731,842,30,0.0635151793431241,1
731,843,30,0.0778421074691057,1
731,844,30,0.058025970190984,1
732,842,30,0.0627866056060314,1
732,843,30,0.0758047254343273,1
732,844,30,0.0568444904982907,1
733,842,30,0.0436914212722748,1
733,843,30,0.0515630729787225,1
735,849,30,0.0476044672000216,1
735,850,30,0.0478628388368271,1
736,849,30,0.0478591081898018,1
736,850,30,0.0508549366992464,1
737,850,30,0.04290197581122,1
738,812,30,0.0416815351874195,1
738,813,30,0.041396129876518,1
738,853,30,0.0551503225831009,1
738,854,30,0.054709116801649,1
739,853,30,0.0465602861313273,1
739,854,30,0.0448500683238266,1
747,815,30,0.0441885678355335,1
748,815,30,0.0423193758041437,1
749,815,30,0.0420000648591909,1
749,816,30,0.046790477866255,1
749,817,30,0.0428240269153315,1
749,842,30,0.0436038537951429,1
749,843,30,0.0547822861439574,1
749,844,30,0.0511159738563177,1
750,815,30,0.0464349363912787,1
750,816,30,0.0579646578181342,1
750,817,30,0.0541261464332376,1
750,818,30,0.0419860154587632,1
750,842,30,0.0464719184574421,1
750,843,30,0.0582887050627886,1
750,844,30,0.0553542592137466,1
750,845,30,0.0427833817863281,1
751,815,30,0.0505518783991601,1
751,816,30,0.0617674739397544,1
751,817,30,0.0560057329123174,1
751,818,30,0.0422206299027731,1
751,819,30,0.0419089478606502,1
751,820,30,0.0663435342415437,1
751,821,30,0.0803471234051322,1
751,822,30,0.0486478318517582,1
751,843,30,0.0489366596258003,1
751,844,30,0.049335730722806,1
751,845,30,0.0446629439351012,1
751,846,30,0.0437710705862639,1
751,847,30,0.0481129814232377,1
751,848,30,0.0425103416779581,1
752,815,30,0.0541521420142483,1
752,816,30,0.0594396150768141,1
752,817,30,0.0521095587005739,1
752,819,30,0.0538937325302991,1
752,820,30,0.106955671349072,1
752,821,30,0.134331343049366,1
752,822,30,0.0810545351821425,1
752,845,30,0.042964675011551,1
752,846,30,0.0623923627232192,1
752,847,30,0.0868054627399412,1
752,848,30,0.0753423685062628,1
752,849,30,0.0445611729655992,1
753,814,30,0.048274523846166,1
753,815,30,0.0590951465947476,1
753,816,30,0.0579358453282827,1
753,817,30,0.0507211037922665,1
753,819,30,0.0443682849975566,1
753,820,30,0.0759035281064135,1
753,821,30,0.0964655136393753,1
753,822,30,0.0599737085624599,1
753,845,30,0.0431640483580092,1
753,846,30,0.0696368953680892,1
753,847,30,0.101734528109268,1
753,848,30,0.0890715172171631,1
753,849,30,0.0496947433215363,1
754,813,30,0.0449121727833274,1
754,814,30,0.0622900673004398,1
754,815,30,0.0622637202816658,1
754,816,30,0.0509332424396329,1
754,817,30,0.045510509092095,1
754,820,30,0.0433235713654826,1
754,821,30,0.0479008265556668,1
754,846,30,0.0475663010589328,1
754,847,30,0.0628694746306054,1
754,848,30,0.0569792912108032,1
755,813,30,0.0520625579547905,1
755,814,30,0.0678008114773648,1
755,815,30,0.0604003540070436,1
755,816,30,0.0448851985833144,1
755,817,30,0.0418861855070613,1
756,813,30,0.0502840557898907,1
756,814,30,0.0560145134496638,1
756,815,30,0.0494017091078048,1
756,816,30,0.0416770800379285,1
756,817,30,0.0410025060648426,1
756,842,30,0.0455487779611454,1
756,843,30,0.0480720145935126,1
756,844,30,0.0417465106231093,1
757,812,30,0.0436955141705329,1
757,813,30,0.0486682530891704,1
757,814,30,0.0442654732316019,1
757,815,30,0.0424172647380454,1
757,816,30,0.0434302570569352,1
757,817,30,0.0442281856849213,1
757,841,30,0.047546885474197,1
757,842,30,0.0563367818785627,1
757,843,30,0.0607681092959765,1
757,844,30,0.0478979393592734,1
758,812,30,0.0437152217189489,1
758,813,30,0.0490920167440954,1
758,814,30,0.0463711369204121,1
758,815,30,0.0454758735488432,1
758,816,30,0.0451623856572907,1
758,817,30,0.0441653702397917,1
758,842,30,0.0544436082748822,1
758,843,30,0.0600101769888155,1
758,844,30,0.0471361142030425,1
759,813,30,0.0416287465320122,1
759,814,30,0.0451739452563342,1
759,815,30,0.0461000756769859,1
759,816,30,0.0419934253888329,1
759,828,30,0.0427629605489159,1
759,829,30,0.0549079224409513,1
759,830,30,0.0455810075074027,1
759,842,30,0.0414421871470754,1
759,843,30,0.0448925165988922,1
760,815,30,0.042698301407213,1
760,828,30,0.0550314771450399,1
760,829,30,0.0773414330113774,1
760,830,30,0.063105803009553,1
761,829,30,0.0617425434855031,1
761,830,30,0.0513902250732872,1
722,826,31,0.0426954953118419,1
723,825,31,0.0476017367989379,1
723,826,31,0.0698377555666228,1
723,827,31,0.0590106879901367,1
724,825,31,0.0505094247173597,1
724,826,31,0.0737943230062968,1
724,827,31,0.0645325808542589,1
725,826,31,0.0490160953737641,1
725,827,31,0.0471351572109795,1
726,824,31,0.0436964495356566,1
729,816,31,0.0428181443878482,1
729,841,31,0.0410351357094765,1
729,842,31,0.0417942223545214,1
730,816,31,0.0412255500963394,1
730,842,31,0.0563783001952394,1
730,843,31,0.0643051573675586,1
730,844,31,0.0460866940083084,1
731,841,31,0.0446501894476627,1
731,842,31,0.0830510963690359,1
731,843,31,0.101791363705688,1
731,844,31,0.0662122749403378,1
732,841,31,0.044242862266588,1
732,842,31,0.081156052035108,1
732,843,31,0.0983634722033707,1
732,844,31,0.0646050959816541,1
733,842,31,0.049327777415887,1
733,843,31,0.0595824664174724,1
733,844,31,0.0518372971620179,1
735,849,31,0.0479142568849577,1
735,850,31,0.0459754125922594,1
736,849,31,0.0463346630873217,1
736,850,31,0.0460471058959621,1
738,853,31,0.0412176265264618,1
747,815,31,0.0432265637293563,1
748,813,31,0.0455095575067668,1
748,814,31,0.0447357050689307,1
748,815,31,0.0445392162154984,1
748,816,31,0.0409951420920188,1
749,812,31,0.0445849301583948,1
749,813,31,0.0505906500945487,1
749,814,31,0.0483918662119473,1
749,815,31,0.050276567462166,1
749,816,31,0.0535434409948323,1
749,817,31,0.0472551218431481,1
749,843,31,0.0433710181668885,1
749,844,31,0.0435303735655824,1
750,813,31,0.0425337825767668,1
750,814,31,0.0462952263635504,1
750,815,31,0.0586744918123436,1
750,816,31,0.071006529432491,1
750,817,31,0.0628061293254635,1
750,818,31,0.0437656449278729,1
750,843,31,0.0440736233566446,1
750,844,31,0.0428654100636377,1
751,814,31,0.042302528418447,1
751,815,31,0.0602245053637837,1
751,816,31,0.0743938271697854,1
751,817,31,0.0638808476324168,1
751,818,31,0.0442789387046692,1
751,820,31,0.0441328757635283,1
751,821,31,0.0478710462602826,1
752,814,31,0.0448556507775274,1
752,815,31,0.0613823359983778,1
752,816,31,0.0715204720174656,1
752,817,31,0.0587718130390893,1
752,818,31,0.0420123570708024,1
752,819,31,0.0421257227831241,1
752,820,31,0.0585434379670608,1
752,821,31,0.0672350831862918,1
752,822,31,0.0485523705417903,1
752,846,31,0.0494436815902064,1
752,847,31,0.0601853335700186,1
752,848,31,0.0515371044313858,1
753,813,31,0.0422657923587179,1
753,814,31,0.0573492578542772,1
753,815,31,0.0643737688324143,1
753,816,31,0.0648854838426434,1
753,817,31,0.0526905177636326,1
753,820,31,0.0456250615827096,1
753,821,31,0.0517981740288661,1
753,846,31,0.0527181029246802,1
753,847,31,0.0653617306724585,1
753,848,31,0.0558454935124805,1
754,813,31,0.0646692577037537,1
754,814,31,0.0901159361821895,1
754,815,31,0.0765034702154225,1
754,816,31,0.0573637911574712,1
754,817,31,0.0457949357839943,1
754,844,31,0.0451129086269601,1
754,845,31,0.0426216744579878,1
755,813,31,0.0798365654361544,1
755,814,31,0.109033684996017,1
755,815,31,0.0849495901997784,1
755,816,31,0.0540544963834135,1
755,817,31,0.0432035256322917,1
755,843,31,0.0418940009422425,1
755,844,31,0.0459134405977617,1
756,812,31,0.0445071596847554,1
756,813,31,0.0648617158363782,1
756,814,31,0.0800216595959551,1
756,815,31,0.0643967961160093,1
756,816,31,0.0488336559207596,1
756,817,31,0.0437395547290028,1
756,840,31,0.0419652617071596,1
756,841,31,0.0424391322770217,1
756,842,31,0.0485093113056901,1
756,843,31,0.057852457257166,1
756,844,31,0.0486269834822954,1
757,812,31,0.0529822922081512,1
757,813,31,0.0572756073125699,1
757,814,31,0.0551219155983608,1
757,815,31,0.0490155060396688,1
757,816,31,0.046112992366469,1
757,817,31,0.0452243954989322,1
757,818,31,0.0419485738201402,1
757,839,31,0.042368996112947,1
757,840,31,0.0447145295920112,1
757,841,31,0.0467097390951998,1
757,842,31,0.0651055649834593,1
757,843,31,0.0814968385307626,1
757,844,31,0.0599041617324805,1
758,812,31,0.0479035839904246,1
758,813,31,0.0556498399995778,1
758,814,31,0.0563084884352537,1
758,815,31,0.0506192084678637,1
758,816,31,0.0452437543129524,1
758,817,31,0.0450434753384119,1
758,818,31,0.0451751617716685,1
758,819,31,0.0421396667522228,1
758,841,31,0.0411503640419435,1
758,842,31,0.0596526133950168,1
758,843,31,0.0761924207612735,1
758,844,31,0.0552928873668137,1
759,813,31,0.0470185501611337,1
759,814,31,0.0537593427296329,1
759,815,31,0.0499405551133567,1
759,816,31,0.0423877737029741,1
759,829,31,0.0488034268663854,1
759,830,31,0.0425815727058337,1
759,842,31,0.0421498800742963,1
759,843,31,0.0487670990151351,1
760,814,31,0.0434722971235219,1
760,815,31,0.0439475301905584,1
760,828,31,0.0498480080334564,1
760,829,31,0.0681793856426709,1
760,830,31,0.0578715808782216,1
761,829,31,0.0531291174989016,1
722,826,32,0.0457196794420457,1
723,825,32,0.0514792848092292,1
723,826,32,0.0721535790378555,1
723,827,32,0.0549716191838564,1
724,825,32,0.053739272929984,1
724,826,32,0.0753542416959257,1
724,827,32,0.0600484674848051,1
725,826,32,0.0510362028907951,1
725,827,32,0.0464446685139533,1
727,831,32,0.0446112879906385,1
727,832,32,0.0423714886176986,1
729,816,32,0.0475140828140489,1
729,817,32,0.041539751676888,1
729,841,32,0.0438230887819595,1
729,842,32,0.0440489551290319,1
730,812,32,0.0462170774184736,1
730,813,32,0.0546563092226698,1
730,814,32,0.0441245737222134,1
730,816,32,0.0459755099134862,1
730,841,32,0.0454781605976717,1
730,842,32,0.058877271401738,1
730,843,32,0.0625197345820901,1
730,844,32,0.0433486099544303,1
731,812,32,0.0463156746346366,1
731,813,32,0.0554993921964986,1
731,814,32,0.0450894866517233,1
731,841,32,0.0503167070614639,1
731,842,32,0.089116587758616,1
731,843,32,0.104541758894749,1
731,844,32,0.0655034249718655,1
732,841,32,0.04581524888671,1
732,842,32,0.085853504347058,1
732,843,32,0.102558546936124,1
732,844,32,0.0658116088565604,1
733,842,32,0.0506658361489446,1
733,843,32,0.0612275519939735,1
733,844,32,0.0519094175977713,1
735,849,32,0.0423456741623043,1
740,848,32,0.0410293883503637,1
741,848,32,0.0416087524266507,1
748,812,32,0.0420141115562512,1
748,813,32,0.0491828985496715,1
748,814,32,0.0468541367620164,1
748,815,32,0.0445377077364839,1
749,812,32,0.0459057197804398,1
749,813,32,0.0555046583562125,1
749,814,32,0.0550498708568948,1
749,815,32,0.0575192455969931,1
749,816,32,0.0567087273869804,1
749,817,32,0.0479100991058818,1
750,813,32,0.0458042299611485,1
750,814,32,0.052873022097455,1
750,815,32,0.0688343412784653,1
750,816,32,0.0783491456537162,1
750,817,32,0.0664797082647002,1
751,814,32,0.0451349356646136,1
751,815,32,0.0661992447094235,1
751,816,32,0.0811445951640261,1
751,817,32,0.0678149176485081,1
751,818,32,0.0422018090588674,1
752,814,32,0.0442194294778816,1
752,815,32,0.0609716512349804,1
752,816,32,0.0734026212888497,1
752,817,32,0.0586963728681569,1
753,813,32,0.0470189448527755,1
753,814,32,0.0583042872725376,1
753,815,32,0.0602133080159731,1
753,816,32,0.0613880238834076,1
753,817,32,0.0479177712625902,1
754,812,32,0.0414654820640439,1
754,813,32,0.075379653349576,1
754,814,32,0.100538190709292,1
754,815,32,0.0776647179064223,1
754,816,32,0.055681355856839,1
754,817,32,0.0422956483483896,1
754,844,32,0.0468218639618805,1
754,845,32,0.0415533928688369,1
755,812,32,0.0472192319374182,1
755,813,32,0.0952104374723229,1
755,814,32,0.129427769785903,1
755,815,32,0.0957414545258566,1
755,816,32,0.0575414834973045,1
755,817,32,0.0431371660724881,1
755,843,32,0.0423661467636972,1
755,844,32,0.0480557078812979,1
755,845,32,0.0413561308523255,1
756,812,32,0.0457218583561779,1
756,813,32,0.0694284819610132,1
756,814,32,0.0899819464798999,1
756,815,32,0.0707737911254633,1
756,816,32,0.0515297080181531,1
756,817,32,0.0447040486365642,1
756,840,32,0.0411413293880606,1
756,842,32,0.046066667462538,1
756,843,32,0.0587595884116631,1
756,844,32,0.0489416770757125,1
757,812,32,0.0535586609533484,1
757,813,32,0.0595412022173322,1
757,814,32,0.0605997760141153,1
757,815,32,0.0520130106369073,1
757,816,32,0.0467526253157858,1
757,817,32,0.0459980614044171,1
757,818,32,0.0432073211601348,1
757,839,32,0.0470990348156524,1
757,840,32,0.0457552611638909,1
757,841,32,0.0460929820409031,1
757,842,32,0.0657084807966188,1
757,843,32,0.0874231227189527,1
757,844,32,0.0619777310434038,1
758,812,32,0.0494103977306593,1
758,813,32,0.0615257550461921,1
758,814,32,0.0645621232533111,1
758,815,32,0.0534661679407962,1
758,816,32,0.0469246622109981,1
758,817,32,0.049931277156407,1
758,818,32,0.0504527026623714,1
758,819,32,0.0455685503903792,1
758,839,32,0.0417641825358659,1
758,842,32,0.0581005831314891,1
758,843,32,0.078370026463588,1
758,844,32,0.054634860705642,1
759,813,32,0.0533615854691882,1
759,814,32,0.0606208514664406,1
759,815,32,0.050650421547975,1
759,816,32,0.0443709721447617,1
759,817,32,0.0513656460567991,1
759,818,32,0.0554084238831654,1
759,819,32,0.0497589807379233,1
759,820,32,0.0411321433456027,1
759,837,32,0.0443573201393432,1
759,843,32,0.0462609692917359,1
760,814,32,0.0437760637058695,1
760,815,32,0.0413364827779925,1
760,828,32,0.0421495421533701,1
760,829,32,0.0506239285473609,1
760,830,32,0.0452342654933447,1
722,826,33,0.0421317594025497,1
723,825,33,0.0477794507657104,1
723,826,33,0.058717724063958,1
723,827,33,0.0440858128402945,1
724,825,33,0.0493654353239028,1
724,826,33,0.0604069664437275,1
724,827,33,0.0472857672161034,1
725,825,33,0.0414267968764125,1
725,826,33,0.0469884508683951,1
727,831,33,0.0415187654356872,1
729,816,33,0.0427679536685215,1
729,841,33,0.0427718627377958,1
729,842,33,0.0413897553361661,1
730,812,33,0.0545084836859779,1
730,813,33,0.0627758786441501,1
730,814,33,0.0456638549050374,1
730,816,33,0.0436719975774368,1
730,840,33,0.0413496535840121,1
730,841,33,0.05021035658757,1
730,842,33,0.0539575211876961,1
730,843,33,0.0524402670425256,1
731,812,33,0.0574919469928909,1
731,813,33,0.0661845870513286,1
731,814,33,0.0476946731637453,1
731,841,33,0.0533605852232467,1
731,842,33,0.0755330532298666,1
731,843,33,0.0826361294716617,1
731,844,33,0.0568574504416524,1
732,813,33,0.0425582480518237,1
732,841,33,0.0459566133752931,1
732,842,33,0.0754204796041959,1
732,843,33,0.0876154510899415,1
732,844,33,0.0615449327345958,1
733,842,33,0.0543449515846361,1
733,843,33,0.0653618388071549,1
733,844,33,0.0544810391000356,1
733,845,33,0.0433866057833723,1
734,843,33,0.0482592173798928,1
734,844,33,0.0518040835900235,1
739,846,33,0.0424048292479612,1
739,847,33,0.0473999844891591,1
740,846,33,0.0569313442864265,1
740,847,33,0.0703861120187217,1
740,848,33,0.0584133303003714,1
740,849,33,0.0413530598269482,1
741,846,33,0.0587361231825477,1
741,847,33,0.0740602478516447,1
741,848,33,0.0617484692668649,1
741,849,33,0.0437325854478208,1
742,846,33,0.0424928590009202,1
742,847,33,0.0523893193803242,1
742,848,33,0.0468590298570278,1
748,813,33,0.0481062067845093,1
748,814,33,0.0470718497529814,1
748,815,33,0.0431870459045627,1
749,812,33,0.0427695810957021,1
749,813,33,0.0529094580834016,1
749,814,33,0.0568525465331714,1
749,815,33,0.0575780816852957,1
749,816,33,0.0519226803182828,1
749,817,33,0.041240469981073,1
750,813,33,0.046352418804468,1
750,814,33,0.0563310561463891,1
750,815,33,0.067622416262005,1
750,816,33,0.0704057384661154,1
750,817,33,0.0569166055273093,1
751,814,33,0.0489929761756772,1
751,815,33,0.0642172060122545,1
751,816,33,0.0724395790895872,1
751,817,33,0.0588946432407121,1
752,814,33,0.0455477669017342,1
752,815,33,0.0566064644046099,1
752,816,33,0.0621563154944822,1
752,817,33,0.0493527619374866,1
753,813,33,0.0507669907506771,1
753,814,33,0.0577748003249577,1
753,815,33,0.056843225322343,1
753,816,33,0.0530186524998103,1
754,812,33,0.0453856027043017,1
754,813,33,0.0758200967814183,1
754,814,33,0.0923007166216091,1
754,815,33,0.0730154558219158,1
754,816,33,0.052164193755922,1
755,812,33,0.0493599474880613,1
755,813,33,0.0920317531912928,1
755,814,33,0.11765392346849,1
755,815,33,0.0910503118734405,1
755,816,33,0.0579346450331528,1
755,817,33,0.0436809078764188,1
755,844,33,0.0425488971039539,1
756,812,33,0.0434001902046056,1
756,813,33,0.066970261314847,1
756,814,33,0.0847075577155966,1
756,815,33,0.0712141967101619,1
756,816,33,0.0531290634315534,1
756,817,33,0.045579623383289,1
756,843,33,0.0492128140134262,1
756,844,33,0.0429701628473924,1
757,812,33,0.0460481439890474,1
757,813,33,0.0560210231583861,1
757,814,33,0.059917754263816,1
757,815,33,0.0534428054396424,1
757,816,33,0.0475292487052168,1
757,817,33,0.0466993635710817,1
757,818,33,0.043111451641688,1
757,839,33,0.0431479173646761,1
757,840,33,0.0430566246472538,1
757,841,33,0.0442318163073524,1
757,842,33,0.0557249773933604,1
757,843,33,0.0698919797101246,1
757,844,33,0.0525027688970356,1
758,812,33,0.0462265175774679,1
758,813,33,0.0610732329687637,1
758,814,33,0.0635383147614155,1
758,815,33,0.0523005462013276,1
758,816,33,0.0482866457456307,1
758,817,33,0.0531657265003624,1
758,818,33,0.0514464443019373,1
758,819,33,0.0455288054827232,1
758,839,33,0.0412899659349754,1
758,842,33,0.0498093336592946,1
758,843,33,0.0623226266575211,1
758,844,33,0.0462595851676222,1
759,813,33,0.0551746474830525,1
759,814,33,0.0585167611374628,1
759,815,33,0.0474591017276724,1
759,816,33,0.0458179035935063,1
759,817,33,0.0557737461414296,1
759,818,33,0.057730470506175,1
759,819,33,0.0508883773541032,1
759,820,33,0.042088748827063,1
759,837,33,0.0414096899674445,1
760,814,33,0.041328467293623,1
760,817,33,0.0484309460912205,1
760,819,33,0.0472955371859217,1
760,836,33,0.0482122058206398,1
723,825,34,0.0431319215397135,1
723,826,34,0.0454122416867559,1
724,825,34,0.0441448976383988,1
724,826,34,0.0454398268478035,1
725,825,34,0.0425817051708368,1
725,826,34,0.0424873143943631,1
730,812,34,0.0518710405940245,1
730,813,34,0.0569731113129049,1
730,814,34,0.0412764950551733,1
730,840,34,0.044949373822251,1
730,841,34,0.0549346208974886,1
730,842,34,0.0511443538073837,1
730,843,34,0.0438196852423908,1
731,812,34,0.0581581918909878,1
731,813,34,0.063831824767811,1
731,814,34,0.0450101049711077,1
731,840,34,0.0454193028824298,1
731,841,34,0.0611787345852909,1
731,842,34,0.0649628055572929,1
731,843,34,0.0599285028526365,1
731,844,34,0.046071782233677,1
732,841,34,0.0513448787883585,1
732,842,34,0.0670271834190236,1
732,843,34,0.0718068397271649,1
732,844,34,0.0541736932592377,1
733,842,34,0.0614183610724782,1
733,843,34,0.0757896676778558,1
733,844,34,0.0588274915942575,1
734,842,34,0.0504577525526925,1
734,843,34,0.0658107762193982,1
734,844,34,0.0550029241784596,1
735,843,34,0.0451007002197384,1
735,844,34,0.0429225565473093,1
739,846,34,0.0581539421974199,1
739,847,34,0.0683785481264712,1
739,848,34,0.052270300926749,1
740,845,34,0.0443333088300111,1
740,846,34,0.086328231884389,1
740,847,34,0.113574866451487,1
740,848,34,0.0849173065861729,1
740,849,34,0.0490747530398177,1
741,846,34,0.0844689206608812,1
741,847,34,0.11724841835705,1
741,848,34,0.0918773044044473,1
741,849,34,0.0552612525613866,1
742,846,34,0.0519460860733151,1
742,847,34,0.0738323215386062,1
742,848,34,0.0664941063995238,1
742,849,34,0.0516314195135721,1
742,850,34,0.0444186946896435,1
743,847,34,0.0465670499565861,1
743,848,34,0.0502204239278034,1
743,849,34,0.0474751056627372,1
743,850,34,0.0456154321879966,1
744,847,34,0.0439218644203716,1
744,848,34,0.0516258613901779,1
744,849,34,0.0473243388623036,1
745,847,34,0.0465410814092494,1
745,848,34,0.0553790166524837,1
745,849,34,0.0470600144104622,1
746,847,34,0.0419821523467349,1
746,848,34,0.0487920889434695,1
746,849,34,0.0411303753433169,1
748,813,34,0.0436711460167027,1
748,814,34,0.0451136953068763,1
749,813,34,0.0465462935016151,1
749,814,34,0.0526585585541163,1
749,815,34,0.0509702136923267,1
749,816,34,0.0416774098487524,1
750,813,34,0.0446938866784715,1
750,814,34,0.0544910253392467,1
750,815,34,0.0588551470428578,1
750,816,34,0.0551928843995977,1
750,817,34,0.0426331853964179,1
751,814,34,0.0498256295580397,1
751,815,34,0.0571747771149265,1
751,816,34,0.0576242552006517,1
751,817,34,0.0449330400763621,1
752,814,34,0.0458235752583316,1
752,815,34,0.051165310311543,1
752,816,34,0.0500312747168882,1
753,813,34,0.0487912995601859,1
753,814,34,0.0538850709411188,1
753,815,34,0.0525275317425076,1
753,816,34,0.0451472116560206,1
754,812,34,0.0439352298688447,1
754,813,34,0.0659923505948317,1
754,814,34,0.0756527258983549,1
754,815,34,0.0645886919482127,1
754,816,34,0.0480795407683809,1
755,812,34,0.0457035133049363,1
755,813,34,0.0749998248217919,1
755,814,34,0.090216225706351,1
755,815,34,0.0755625902221839,1
755,816,34,0.0545755217910012,1
755,817,34,0.0441642672658886,1
756,813,34,0.0592923302136041,1
756,814,34,0.071804325595474,1
756,815,34,0.0642819516617145,1
756,816,34,0.0522341460910129,1
756,817,34,0.0469970043228791,1
757,813,34,0.0492603932798352,1
757,814,34,0.053915775788157,1
757,815,34,0.0498551719570918,1
757,816,34,0.0460578977386613,1
757,817,34,0.046465462816068,1
757,818,34,0.0428194825547159,1
757,842,34,0.0436812349838754,1
757,843,34,0.0488393221788501,1
757,844,34,0.041187954365774,1
758,813,34,0.0531128756675047,1
758,814,34,0.0538330311184839,1
758,815,34,0.0463699474387519,1
758,816,34,0.0452388801415129,1
758,817,34,0.0498074845559864,1
758,818,34,0.0480410177827941,1
758,819,34,0.0434811506517884,1
758,843,34,0.045468163544991,1
759,813,34,0.0500175524239171,1
759,814,34,0.0494518836069271,1
759,815,34,0.0419190097941487,1
759,817,34,0.0503382096458398,1
759,818,34,0.051383353113332,1
759,819,34,0.0476781772158119,1
759,820,34,0.0425142940011109,1
760,819,34,0.0453544301747016,1
760,820,34,0.0420160850144602,1
760,837,34,0.0425606405319812,1
726,830,35,0.0440727501689713,1
726,831,35,0.0426441475512638,1
730,812,35,0.0436679722633639,1
730,813,35,0.0453574119889543,1
730,840,35,0.0428586462383789,1
730,841,35,0.0540949279463915,1
730,842,35,0.0500243703165241,1
731,812,35,0.0499286602967545,1
731,813,35,0.0522906572833433,1
731,840,35,0.049617145863411,1
731,841,35,0.0674958067527436,1
731,842,35,0.062022612349138,1
731,843,35,0.0484074376082266,1
732,840,35,0.0434360692968658,1
732,841,35,0.0595515507077762,1
732,842,35,0.063111096202941,1
732,843,35,0.0620384432686887,1
732,844,35,0.0484392129887591,1
733,841,35,0.0422621428127149,1
733,842,35,0.0642859634589504,1
733,843,35,0.0836439610621665,1
733,844,35,0.0632970121864343,1
734,842,35,0.0573671000791805,1
734,843,35,0.0809711849581696,1
734,844,35,0.0626979513752008,1
735,843,35,0.0506910747870806,1
735,844,35,0.0441411940250476,1
738,846,35,0.0421561113361755,1
738,847,35,0.0432736509828968,1
739,845,35,0.0472039903519629,1
739,846,35,0.0689840753925484,1
739,847,35,0.0811006384099459,1
739,848,35,0.0614554620868076,1
739,849,35,0.045004160266174,1
740,845,35,0.0589957978424446,1
740,846,35,0.108691741459111,1
740,847,35,0.141360671428227,1
740,848,35,0.104969107214859,1
740,849,35,0.0606283722345741,1
740,850,35,0.0427160273873178,1
741,845,35,0.0523601338257701,1
741,846,35,0.102989582649381,1
741,847,35,0.14404013025646,1
741,848,35,0.114487977454694,1
741,849,35,0.0692515573775243,1
741,850,35,0.0482194400318279,1
741,851,35,0.0429280200528441,1
742,846,35,0.0612463890580836,1
742,847,35,0.0885462421160074,1
742,848,35,0.0824655578015853,1
742,849,35,0.0654470489479056,1
742,850,35,0.0579411655553448,1
742,851,35,0.0522491497801362,1
743,847,35,0.0522747182290962,1
743,848,35,0.0616858863113326,1
743,849,35,0.0610735033055047,1
743,850,35,0.0612491735265155,1
743,851,35,0.0557720051728178,1
744,847,35,0.0511320697058745,1
744,848,35,0.0688904794060931,1
744,849,35,0.0623641720078719,1
744,850,35,0.0553432727285939,1
745,847,35,0.0585100784132263,1
745,848,35,0.0787144841321849,1
745,849,35,0.0632625766923707,1
745,850,35,0.0477347641024297,1
746,847,35,0.0507060081886513,1
746,848,35,0.0654155547175837,1
746,849,35,0.0513778544640209,1
747,848,35,0.0419494443044461,1
748,814,35,0.04131337980011,1
749,813,35,0.0417226912528633,1
749,814,35,0.0451425402371368,1
750,813,35,0.044365938474645,1
750,814,35,0.0486997635396967,1
750,815,35,0.0466602945052781,1
751,813,35,0.0424815400015762,1
751,814,35,0.0469919436190884,1
751,815,35,0.0469710087418684,1
752,814,35,0.0434179918789978,1
752,815,35,0.0434454121346334,1
753,813,35,0.0437989909648703,1
753,814,35,0.0471123624169818,1
753,815,35,0.0441839207469564,1
754,813,35,0.0521329590488714,1
754,814,35,0.0573420885239069,1
754,815,35,0.0508318499415683,1
755,813,35,0.0544838830425505,1
755,814,35,0.0622869151740402,1
755,815,35,0.055449525881261,1
755,816,35,0.0450082207240232,1
756,813,35,0.0480406176844175,1
756,814,35,0.0557902961567112,1
756,815,35,0.0520714628470378,1
756,816,35,0.0454556956144979,1
756,817,35,0.0412531595876936,1
757,814,35,0.0446766283809286,1
757,815,35,0.0431667300984796,1
757,816,35,0.0414124014449564,1
757,817,35,0.0415655066581993,1
758,813,35,0.0415880527423954,1
758,814,35,0.041684376426567,1
758,817,35,0.0423237201155709,1
758,818,35,0.0418169441575991,1
759,813,35,0.0412808961373162,1
759,818,35,0.0435802669144941,1
759,819,35,0.0438360730556279,1
759,820,35,0.042455303820866,1
760,819,35,0.0442039202590527,1
760,820,35,0.0464923342881194,1
760,821,35,0.0419840744409631,1
761,819,35,0.0415216985893267,1
761,820,35,0.0446978822555029,1
761,826,35,0.0467978093986699,1
761,827,35,0.0532635072995678,1
761,828,35,0.047541743669384,1
722,832,36,0.0492259307520976,1
722,833,36,0.0485340417107532,1
723,832,36,0.0537484805993811,1
723,833,36,0.0523144198828737,1
724,826,36,0.0414073083007567,1
724,827,36,0.0410602932465903,1
724,832,36,0.0426169787087973,1
725,830,36,0.0454043965145333,1
725,831,36,0.043500406737847,1
726,830,36,0.0528259564708538,1
726,831,36,0.050705089043732,1
730,841,36,0.0536332793005882,1
730,842,36,0.055020825877446,1
730,843,36,0.0440994432187737,1
731,840,36,0.050324000746735,1
731,841,36,0.0725160735738093,1
731,842,36,0.0684056250544458,1
731,843,36,0.0508079846140764,1
732,840,36,0.0487148753635164,1
732,841,36,0.0661712053826511,1
732,842,36,0.0645384579750074,1
732,843,36,0.0586920961409149,1
732,844,36,0.0445551174226017,1
733,841,36,0.0447176438712671,1
733,842,36,0.0606119303539889,1
733,843,36,0.079625740625349,1
733,844,36,0.0610708161582995,1
734,842,36,0.0544982865841089,1
734,843,36,0.0797958310960265,1
734,844,36,0.0634254329518601,1
735,843,36,0.0497374240861991,1
735,844,36,0.043228337138377,1
738,846,36,0.0450091047251662,1
738,847,36,0.0498324258237074,1
738,848,36,0.0482294533047131,1
739,845,36,0.0505471583196629,1
739,846,36,0.0719700149840086,1
739,847,36,0.0856106013785703,1
739,848,36,0.0709927855125805,1
739,849,36,0.0536217953958322,1
739,850,36,0.0450396338533228,1
740,845,36,0.0657694957990536,1
740,846,36,0.111580570686483,1
740,847,36,0.139912499133841,1
740,848,36,0.109829426599768,1
740,849,36,0.0662820434464448,1
740,850,36,0.0476165296254032,1
740,851,36,0.043003014168154,1
741,845,36,0.0580827679402598,1
741,846,36,0.10337540724608,1
741,847,36,0.138433119166079,1
741,848,36,0.117400455740166,1
741,849,36,0.0755594380957843,1
741,850,36,0.0557934536898456,1
741,851,36,0.0501987861750569,1
741,852,36,0.0435739112977141,1
742,846,36,0.0630385486351368,1
742,847,36,0.0875542901056666,1
742,848,36,0.0908608166314969,1
742,849,36,0.0798854909795334,1
742,850,36,0.0738417887312746,1
742,851,36,0.0650274701057307,1
742,852,36,0.0489943386728516,1
743,847,36,0.0558705915755113,1
743,848,36,0.0787517906024374,1
743,849,36,0.0883266529880601,1
743,850,36,0.0860082180639097,1
743,851,36,0.0716275578072948,1
743,852,36,0.0513082697868977,1
744,847,36,0.0580182277467229,1
744,848,36,0.0940442372122287,1
744,849,36,0.0964265094543895,1
744,850,36,0.0801534271302341,1
744,851,36,0.0635621530552334,1
745,847,36,0.0677355575948318,1
745,848,36,0.105263860770263,1
745,849,36,0.0933271744135661,1
745,850,36,0.0668450954037823,1
746,847,36,0.0559516331237164,1
746,848,36,0.0801323624913784,1
746,849,36,0.0655420939392925,1
746,850,36,0.0478246078149205,1
747,848,36,0.0447061680766133,1
749,814,36,0.0414628516875544,1
750,813,36,0.0460743288057769,1
750,814,36,0.0473676251812662,1
751,813,36,0.0454145773961978,1
751,814,36,0.0477283625284037,1
751,815,36,0.0417488625527557,1
752,814,36,0.0430364196792344,1
753,813,36,0.0411837614429217,1
753,814,36,0.043174805056932,1
754,813,36,0.0447194983813101,1
754,814,36,0.0474531705395757,1
754,815,36,0.0421803524317374,1
755,813,36,0.0432518672483102,1
755,814,36,0.0472436974124751,1
755,815,36,0.0436520440225865,1
756,814,36,0.0444900798094615,1
756,815,36,0.0430331513080362,1
759,819,36,0.0418295256295234,1
759,820,36,0.0427953739241571,1
760,819,36,0.045730168507595,1
760,820,36,0.0529351022266491,1
760,821,36,0.0458732415243809,1
761,819,36,0.0449331725413652,1
761,820,36,0.0527579235266237,1
761,821,36,0.045446331149791,1
761,824,36,0.0425390892869918,1
761,825,36,0.0486751358625952,1
761,826,36,0.0520371138607313,1
761,827,36,0.0584954207551314,1
761,828,36,0.058383793308054,1
761,829,36,0.048094522830565,1
762,820,36,0.0419701980560496,1
762,827,36,0.067731783693928,1
762,828,36,0.0667336625991584,1
763,825,36,0.0682759661467464,1
722,832,37,0.0628667982968699,1
722,833,37,0.0584102863086682,1
723,826,37,0.0554207404250835,1
723,827,37,0.0562193530050243,1
723,831,37,0.0465650710916422,1
723,832,37,0.0726238784593695,1
723,833,37,0.0669652600851392,1
724,825,37,0.0477965198275347,1
724,826,37,0.0710531679270414,1
724,827,37,0.0727428104051876,1
724,828,37,0.0467320364695942,1
724,832,37,0.0501122946381541,1
724,833,37,0.0455602510524317,1
725,825,37,0.0440341136419532,1
725,826,37,0.0618475530891617,1
725,827,37,0.0621399817485934,1
725,828,37,0.0425988472235811,1
725,830,37,0.044727530085884,1
725,831,37,0.0436173003446383,1
726,830,37,0.0514646649982781,1
726,831,37,0.0494435085746921,1
730,841,37,0.0487767608502571,1
730,842,37,0.0536862112344683,1
730,843,37,0.0440576653788257,1
731,840,37,0.0445900368194316,1
731,841,37,0.0634260547263643,1
731,842,37,0.0642267056453319,1
731,843,37,0.049818530515222,1
732,840,37,0.0445498161191115,1
732,841,37,0.0588348501603465,1
732,842,37,0.0582435209799045,1
732,843,37,0.0515138122177847,1
733,842,37,0.05004662443704,1
733,843,37,0.0610060705088395,1
733,844,37,0.0500850501014001,1
734,842,37,0.0439302205290347,1
734,843,37,0.0606696472481839,1
735,843,37,0.0419830039074689,1
738,846,37,0.0476336689747801,1
738,847,37,0.0557649601973484,1
738,848,37,0.0560074522539899,1
738,849,37,0.0483525105891983,1
739,845,37,0.0478298036870817,1
739,846,37,0.0707112892709533,1
739,847,37,0.0871336569502019,1
739,848,37,0.0799964101443494,1
739,849,37,0.0593706792078692,1
739,850,37,0.048012908168469,1
740,845,37,0.0589974414898297,1
740,846,37,0.0963772973540651,1
740,847,37,0.118380913032281,1
740,848,37,0.101122680370187,1
740,849,37,0.0651072518847229,1
740,850,37,0.0494688931946683,1
740,851,37,0.0448899781368945,1
741,845,37,0.0529048245116615,1
741,846,37,0.0880437672155843,1
741,847,37,0.112003344908936,1
741,848,37,0.102873640627918,1
741,849,37,0.0733869687915481,1
741,850,37,0.0588495618857895,1
741,851,37,0.0538554312208399,1
741,852,37,0.0458418121748768,1
742,846,37,0.057105560095771,1
742,847,37,0.0748751238899217,1
742,848,37,0.0873109708185978,1
742,849,37,0.0863081891184141,1
742,850,37,0.0808957339737676,1
742,851,37,0.0684925761638083,1
742,852,37,0.0519803215181904,1
743,847,37,0.056350168953975,1
743,848,37,0.0935615239275698,1
743,849,37,0.116635370322839,1
743,850,37,0.106946036547624,1
743,851,37,0.0773015259016768,1
743,852,37,0.0542113403537839,1
744,847,37,0.0578445093569818,1
744,848,37,0.113136553273164,1
744,849,37,0.137462685960319,1
744,850,37,0.112385017133294,1
744,851,37,0.0723344883849062,1
745,847,37,0.0639616999449032,1
745,848,37,0.116793820093451,1
745,849,37,0.125643250054911,1
745,850,37,0.0939667911426784,1
745,851,37,0.062067023268943,1
746,847,37,0.0513488743653899,1
746,848,37,0.0807409607828329,1
746,849,37,0.0771022390629757,1
746,850,37,0.058128579204383,1
747,848,37,0.0443792498557699,1
747,849,37,0.0416288087094626,1
750,813,37,0.0434930995357388,1
750,814,37,0.0433520243074686,1
751,813,37,0.044293358466432,1
751,814,37,0.0456754685714291,1
752,814,37,0.0414812291792049,1
754,813,37,0.0424005579274541,1
754,814,37,0.0418997104542116,1
760,819,37,0.045531265547066,1
760,820,37,0.0532784893617518,1
760,821,37,0.0445804750089038,1
760,838,37,0.0476649955963226,1
760,839,37,0.05418110048594,1
761,819,37,0.0452475065869169,1
761,820,37,0.0549206985553291,1
761,821,37,0.0461532238802587,1
761,824,37,0.0491394175882554,1
761,825,37,0.0595380717178719,1
761,826,37,0.0548746602083435,1
761,827,37,0.0556318680130388,1
761,828,37,0.0621977581168715,1
761,829,37,0.0492406208506014,1
761,839,37,0.0606468632676558,1
762,820,37,0.0422661464998486,1
762,825,37,0.0979946139405347,1
762,826,37,0.0796232319003929,1
762,827,37,0.0658931964849822,1
762,828,37,0.0720988412545459,1
763,824,37,0.0835205793735921,1
763,825,37,0.108148321355902,1
763,826,37,0.0809733963127107,1
764,825,37,0.0743749360383271,1
722,832,38,0.0646819256834351,1
722,833,38,0.0570952818928797,1
723,825,38,0.0432144715669332,1
723,826,38,0.074638617088725,1
723,827,38,0.0764253537107546,1
723,828,38,0.0438442885891856,1
723,831,38,0.0479862691860148,1
723,832,38,0.0766926626802162,1
723,833,38,0.0679639056331862,1
724,825,38,0.0613524205346231,1
724,826,38,0.117306562383296,1
724,827,38,0.120415186194538,1
724,828,38,0.0636329001803427,1
724,832,38,0.0494093812645133,1
724,833,38,0.0442039797331357,1
725,820,38,0.0531130649032233,1
725,821,38,0.0577301947626993,1
725,822,38,0.0411903873964426,1
725,825,38,0.05295212262786,1
725,826,38,0.0978059080818748,1
725,827,38,0.0998642844679561,1
725,828,38,0.0556383669082915,1
726,820,38,0.050983184449158,1
726,821,38,0.0568911289928412,1
726,822,38,0.04235036450476,1
726,826,38,0.0459144678773773,1
726,827,38,0.046529462336123,1
726,830,38,0.0448456996820926,1
726,831,38,0.0424815751453525,1
730,841,38,0.0440407206719023,1
730,842,38,0.0489899754378525,1
731,841,38,0.0524813420069471,1
731,842,38,0.0568305681561313,1
731,843,38,0.0464210140491193,1
732,841,38,0.0474442169867151,1
732,842,38,0.0498124803789593,1
732,843,38,0.0436652094218713,1
733,843,38,0.041800185983027,1
737,847,38,0.0419205993741856,1
737,848,38,0.0411786358583131,1
738,846,38,0.0505651140859975,1
738,847,38,0.059598838010505,1
738,848,38,0.0579548337809677,1
738,849,38,0.0483775762118201,1
739,845,38,0.0452880976485721,1
739,846,38,0.0686031925514745,1
739,847,38,0.0863450252027374,1
739,848,38,0.0796179819608834,1
739,849,38,0.0588139693504747,1
739,850,38,0.0486315629866872,1
739,851,38,0.0416781803084642,1
740,845,38,0.0496867413540038,1
740,846,38,0.0800852968647772,1
740,847,38,0.0989007610692947,1
740,848,38,0.0863212301627981,1
740,849,38,0.0599080870219592,1
740,850,38,0.0509475486599646,1
740,851,38,0.0475590127803965,1
741,845,38,0.0438838334476533,1
741,846,38,0.0700433899120017,1
741,847,38,0.0870025220038968,1
741,848,38,0.081688285603976,1
741,849,38,0.065870742315278,1
741,850,38,0.0600023047829187,1
741,851,38,0.0589094847277908,1
741,852,38,0.0506969140606854,1
742,846,38,0.0480036410249889,1
742,847,38,0.0620997502348037,1
742,848,38,0.0777649803969097,1
742,849,38,0.0859981074697978,1
742,850,38,0.0811014331999643,1
742,851,38,0.0723362672006617,1
742,852,38,0.0640715972368384,1
742,853,38,0.051250601553316,1
743,847,38,0.0522486361403284,1
743,848,38,0.100316460514356,1
743,849,38,0.136891085955232,1
743,850,38,0.118903528019906,1
743,851,38,0.0806718843387827,1
743,852,38,0.0660558148481395,1
743,853,38,0.0554629291768778,1
744,847,38,0.0524709340424201,1
744,848,38,0.122188757417283,1
744,849,38,0.172146186950011,1
744,850,38,0.139974709024671,1
744,851,38,0.0788225269140771,1
744,852,38,0.058055280100439,1
745,847,38,0.0530822681416931,1
745,848,38,0.111896637590544,1
745,849,38,0.145317990404041,1
745,850,38,0.113378656044898,1
745,851,38,0.06475041279339,1
746,847,38,0.0416366971355638,1
746,848,38,0.0675286959206489,1
746,849,38,0.0768256359163598,1
746,850,38,0.0614323428887207,1
751,813,38,0.0424031828972088,1
751,814,38,0.0431652432464043,1
754,813,38,0.0424592669574884,1
759,839,38,0.0442503695178845,1
759,840,38,0.0413515567546684,1
760,819,38,0.0425511030517601,1
760,820,38,0.047161579924041,1
760,839,38,0.0721161590261718,1
760,840,38,0.0609358694639469,1
761,819,38,0.0414862736627912,1
761,820,38,0.0495893768733795,1
761,821,38,0.0424906584598488,1
761,824,38,0.0480958799210046,1
761,825,38,0.059892364237105,1
761,826,38,0.0491957233246627,1
761,827,38,0.0464328223579644,1
761,828,38,0.0550045516056402,1
761,829,38,0.0425725623822575,1
761,838,38,0.0627859676113227,1
761,839,38,0.084728508813021,1
761,840,38,0.0700999065110669,1
762,824,38,0.0811488718912681,1
762,825,38,0.111799900291159,1
762,826,38,0.0782413786152997,1
762,828,38,0.0622090906330525,1
762,839,38,0.0633214290008778,1
763,823,38,0.043362989165682,1
763,824,38,0.0929099691279767,1
763,825,38,0.127879605337771,1
763,826,38,0.0857653799762398,1
764,824,38,0.0605837774857853,1
764,825,38,0.0784913373727265,1
722,832,39,0.0537582127220557,1
722,833,39,0.0467446882290712,1
723,825,39,0.0458286575890617,1
723,826,39,0.0854431872416284,1
723,827,39,0.0872874136749905,1
723,828,39,0.0479376301995812,1
723,831,39,0.0430966561118552,1
723,832,39,0.0621667667128878,1
723,833,39,0.0545801067021279,1
724,820,39,0.0508165380685603,1
724,821,39,0.0539481567229893,1
724,825,39,0.0720029257788531,1
724,826,39,0.149171337869281,1
724,827,39,0.154363187419834,1
724,828,39,0.0786351889593264,1
724,832,39,0.0440054363204721,1
725,819,39,0.0450302504650441,1
725,820,39,0.0776501413493497,1
725,821,39,0.0853837131586171,1
725,822,39,0.0547665579523683,1
725,825,39,0.0604935931490009,1
725,826,39,0.12304475167386,1
725,827,39,0.128045786739174,1
725,828,39,0.0683871178011597,1
726,819,39,0.0422319597155867,1
726,820,39,0.0718099972602993,1
726,821,39,0.0792948808948224,1
726,822,39,0.0520669860706075,1
726,826,39,0.0548811699170659,1
726,827,39,0.0572774996697566,1
727,820,39,0.044334674030553,1
727,821,39,0.0476680666216999,1
731,842,39,0.0427554343740476,1
737,847,39,0.0427242023703645,1
737,848,39,0.0415624194126175,1
738,845,39,0.0418783457415735,1
738,846,39,0.0523526400913107,1
738,847,39,0.0599345421754296,1
738,848,39,0.0565140741200193,1
738,849,39,0.0481888541329557,1
739,845,39,0.0444529598715602,1
739,846,39,0.0629923210524326,1
739,847,39,0.0766698462592791,1
739,848,39,0.0702952896872286,1
739,849,39,0.0563379010726702,1
739,850,39,0.0500618714292301,1
739,851,39,0.0432595556252231,1
740,845,39,0.042700769581658,1
740,846,39,0.0644099561085593,1
740,847,39,0.0786106099428383,1
740,848,39,0.0703450478677698,1
740,849,39,0.0589024127186473,1
740,850,39,0.0596972459909494,1
740,851,39,0.0539314985730113,1
740,852,39,0.0420351194243912,1
741,846,39,0.0541102992934825,1
741,847,39,0.0665672865553018,1
741,848,39,0.0643873505502802,1
741,849,39,0.0642920352221523,1
741,850,39,0.0708994544561314,1
741,851,39,0.0689006440675532,1
741,852,39,0.0582208559475424,1
741,853,39,0.0458070144295804,1
742,847,39,0.0534825341270939,1
742,848,39,0.0675344973471099,1
742,849,39,0.0817275276852938,1
742,850,39,0.0826380164221136,1
742,851,39,0.07964066321345,1
742,852,39,0.0810816337370564,1
742,853,39,0.066481541147804,1
743,847,39,0.0481518179994441,1
743,848,39,0.0908439800592699,1
743,849,39,0.130372661576377,1
743,850,39,0.113668424590799,1
743,851,39,0.085042996950515,1
743,852,39,0.0850035980738875,1
743,853,39,0.0728206673865842,1
744,847,39,0.04831911318822,1
744,848,39,0.111566999782087,1
744,849,39,0.170992303231835,1
744,850,39,0.14218835602129,1
744,851,39,0.0838260544841426,1
744,852,39,0.0664252732585405,1
745,847,39,0.0432874381566858,1
745,848,39,0.0914197756905763,1
745,849,39,0.135742122365741,1
745,850,39,0.113062264736748,1
745,851,39,0.0665676542132695,1
746,848,39,0.0528870309473715,1
746,849,39,0.0700780524889277,1
746,850,39,0.0631063382763001,1
754,813,39,0.0416547853669015,1
759,839,39,0.0452212704062067,1
759,840,39,0.0449825955043476,1
760,838,39,0.0515001602123662,1
760,839,39,0.0764603352850348,1
760,840,39,0.0678899901614728,1
760,841,39,0.0461320781403808,1
761,820,39,0.0421021440125775,1
761,824,39,0.0478697810843349,1
761,825,39,0.0568086168127653,1
761,826,39,0.0445822754515986,1
761,828,39,0.0425278865324464,1
761,838,39,0.060790763514869,1
761,839,39,0.0910450673406659,1
761,840,39,0.076928266556698,1
761,841,39,0.0471427050127871,1
762,823,39,0.0442877327588526,1
762,824,39,0.0801917446598978,1
762,825,39,0.106367386160333,1
762,826,39,0.0712630573727231,1
762,828,39,0.0476962897774562,1
762,839,39,0.0653190336875912,1
762,840,39,0.0560566481341099,1
763,823,39,0.0465479371490002,1
763,824,39,0.0893288399474137,1
763,825,39,0.120072301885774,1
763,826,39,0.0795503383015603,1
764,824,39,0.0579348450823411,1
764,825,39,0.0732001390698703,1
722,832,40,0.0414438389045627,1
723,825,40,0.044342897674213,1
723,826,40,0.0799083344341445,1
723,827,40,0.0813602752226991,1
723,828,40,0.0451144711733229,1
723,832,40,0.0450008567511994,1
724,820,40,0.0519368135231002,1
724,821,40,0.0563619988897594,1
724,825,40,0.0721663984061119,1
724,826,40,0.145286652969028,1
724,827,40,0.150447359727023,1
724,828,40,0.0767686975919787,1
725,819,40,0.0477828516019117,1
725,820,40,0.0850791680064556,1
725,821,40,0.0942899408693528,1
725,822,40,0.0586741079341714,1
725,825,40,0.0601484920789605,1
725,826,40,0.119103512327399,1
725,827,40,0.124731274466016,1
725,828,40,0.0666797087923976,1
726,819,40,0.0453194837441976,1
726,820,40,0.07878595575976,1
726,821,40,0.0865114607206771,1
726,822,40,0.0537361748709326,1
726,826,40,0.0545310730240525,1
726,827,40,0.0577054265104925,1
727,820,40,0.0465399405882026,1
727,821,40,0.0490264438642081,1
737,846,40,0.0427743552425474,1
737,847,40,0.0438197555299435,1
738,845,40,0.0448962256189781,1
738,846,40,0.0554982946293303,1
738,847,40,0.0600267648512408,1
738,848,40,0.0534591175585919,1
738,849,40,0.0463777547638308,1
739,845,40,0.0473998168803798,1
739,846,40,0.061649001566396,1
739,847,40,0.0693718031599034,1
739,848,40,0.0638195785134455,1
739,849,40,0.0560445046077059,1
739,850,40,0.0525356742851453,1
740,845,40,0.0415623977856782,1
740,846,40,0.0563894596959062,1
740,847,40,0.0658524513313847,1
740,848,40,0.0657067830818856,1
740,849,40,0.0652070115488721,1
740,850,40,0.0703854848374826,1
740,851,40,0.057673889026292,1
741,846,40,0.046890843084704,1
741,847,40,0.0576729482544335,1
741,848,40,0.0635257170692867,1
741,849,40,0.0731736893231348,1
741,850,40,0.0859871317981148,1
741,851,40,0.0758419021429442,1
741,852,40,0.0620955870489929,1
742,847,40,0.0505993657510772,1
742,848,40,0.0642766800952658,1
742,849,40,0.0779856616852905,1
742,850,40,0.0857097987422983,1
742,851,40,0.0840527696885816,1
742,852,40,0.0911686112312848,1
742,853,40,0.0750810069451023,1
743,847,40,0.0462528267490982,1
743,848,40,0.0760266448649817,1
743,849,40,0.105911198316697,1
743,850,40,0.100765424960273,1
743,851,40,0.0912875053299592,1
743,852,40,0.103382457628284,1
743,853,40,0.0866597944904421,1
744,847,40,0.0436805023713074,1
744,848,40,0.0890234351244159,1
744,849,40,0.137255651270622,1
744,850,40,0.12510706416289,1
744,851,40,0.0902482335764807,1
744,852,40,0.0811656652096165,1
744,853,40,0.0668745296681381,1
745,848,40,0.0681443121538987,1
745,849,40,0.10773718242678,1
745,850,40,0.102089231540348,1
745,851,40,0.0730315949253512,1
745,852,40,0.0599232475063923,1
746,848,40,0.0424532006010213,1
746,849,40,0.061962473237744,1
746,850,40,0.0657186562715485,1
746,851,40,0.0577147747549949,1
747,850,40,0.0425649388861625,1
759,839,40,0.0420037982095836,1
759,840,40,0.0475439928710688,1
759,841,40,0.0421425052880029,1
760,838,40,0.0426812674891651,1
760,839,40,0.0671593780853532,1
760,840,40,0.0676368684641768,1
760,841,40,0.0499879343305775,1
761,824,40,0.0431959183564011,1
761,825,40,0.0468769694031579,1
761,838,40,0.0487636765519946,1
761,839,40,0.0778888162512088,1
761,840,40,0.0726846285317981,1
762,823,40,0.046317729193868,1
762,824,40,0.0683438314821971,1
762,825,40,0.0819265495939888,1
762,826,40,0.0569850169429768,1
763,823,40,0.0474483423253821,1
763,824,40,0.073817285409074,1
763,825,40,0.0907628249696336,1
763,826,40,0.0636862213991297,1
764,824,40,0.0529789886931766,1
764,825,40,0.061256786209141,1
723,825,41,0.043790104996195,1
723,826,41,0.0671128747591732,1
723,827,41,0.0665921034681219,1
723,828,41,0.0417873855383425,1
724,820,41,0.0464219818546519,1
724,821,41,0.0507042942537136,1
724,825,41,0.0652758825369991,1
724,826,41,0.11324701286552,1
724,827,41,0.114027204699932,1
724,828,41,0.0637127792805617,1
725,819,41,0.0450115810097134,1
725,820,41,0.0731181729700111,1
725,821,41,0.0797821304299946,1
725,822,41,0.0534268663853953,1
725,825,41,0.0547628705592216,1
725,826,41,0.0928230612724928,1
725,827,41,0.0947806453080745,1
725,828,41,0.0560885803099521,1
726,819,41,0.0441355358770593,1
726,820,41,0.0698034552409297,1
726,821,41,0.0736963962252513,1
726,822,41,0.0476376050777285,1
726,826,41,0.047969486681136,1
726,827,41,0.0500057981824201,1
727,812,41,0.041311300910572,1
727,813,41,0.0457881503317962,1
727,814,41,0.0412540571056736,1
727,820,41,0.0454514837680737,1
727,821,41,0.0448438749090912,1
728,813,41,0.0433503806600836,1
728,814,41,0.0411959347063672,1
737,846,41,0.0444219927978832,1
737,847,41,0.0443445602451699,1
738,845,41,0.0476589184263858,1
738,846,41,0.0585235790300698,1
738,847,41,0.0603837715513531,1
738,848,41,0.0523401180934694,1
738,849,41,0.0453948482208425,1
739,845,41,0.0480114159096589,1
739,846,41,0.0584855967179649,1
739,847,41,0.0633377843737059,1
739,848,41,0.0619069190374766,1
739,849,41,0.0582210343697914,1
739,850,41,0.0519440801746972,1
740,846,41,0.0484989465950417,1
740,847,41,0.0568583047057538,1
740,848,41,0.0662781451906402,1
740,849,41,0.0716229080153503,1
740,850,41,0.0706541346771794,1
740,851,41,0.0540020456489323,1
741,846,41,0.0411724586637821,1
741,847,41,0.0527240124858376,1
741,848,41,0.0667780302650849,1
741,849,41,0.0800801063993508,1
741,850,41,0.0877951655485972,1
741,851,41,0.0717908736392438,1
741,852,41,0.0575589364373009,1
742,847,41,0.0510384899396236,1
742,848,41,0.0629137666022443,1
742,849,41,0.07312628307224,1
742,850,41,0.0838200854489022,1
742,851,41,0.0821415051501961,1
742,852,41,0.0847017400689311,1
742,853,41,0.0690720267478525,1
743,813,41,0.0428959581153662,1
743,847,41,0.0462689171919201,1
743,848,41,0.0617814395357925,1
743,849,41,0.0781521674907828,1
743,850,41,0.089446539157693,1
743,851,41,0.0995757594710639,1
743,852,41,0.109804425857964,1
743,853,41,0.0851028170645548,1
744,848,41,0.0625218594288741,1
744,849,41,0.0910779402883667,1
744,850,41,0.103253009583243,1
744,851,41,0.104289750984826,1
744,852,41,0.101648463704416,1
744,853,41,0.0734030267939611,1
745,848,41,0.0487787126815268,1
745,849,41,0.0759853536311674,1
745,850,41,0.0883493342406267,1
745,851,41,0.0852077834143349,1
745,852,41,0.077387319969788,1
746,849,41,0.0554488554461434,1
746,850,41,0.0665113214431882,1
746,851,41,0.0627184104597567,1
746,852,41,0.0561850472725964,1
747,850,41,0.045297026871126,1
747,851,41,0.0439492927861095,1
759,840,41,0.0439463407088982,1
759,841,41,0.0425600106473747,1
760,839,41,0.0516125770427271,1
760,840,41,0.0572815601276059,1
760,841,41,0.0460754371864148,1
761,839,41,0.058363188241658,1
762,823,41,0.0412842293893322,1
762,824,41,0.0520509551018685,1
762,825,41,0.0561616090771551,1
762,826,41,0.0432197323199123,1
763,823,41,0.0427203771054799,1
763,824,41,0.0568661606914461,1
763,825,41,0.063318401229379,1
763,826,41,0.0493477444875743,1
764,824,41,0.0478120101227917,1
764,825,41,0.0517473993821789,1
764,826,41,0.043379047168095,1
765,825,41,0.0411267852713969,1
723,826,42,0.0488548016606375,1
723,827,42,0.0466241558897466,1
724,821,42,0.0414540387097991,1
724,825,42,0.051022421123741,1
724,826,42,0.0722679747331603,1
724,827,42,0.068700340762706,1
724,828,42,0.0454830536926831,1
725,820,42,0.0552746342300641,1
725,821,42,0.0574105377867181,1
725,822,42,0.0442473336362835,1
725,825,42,0.0434749545336856,1
725,826,42,0.0596054666673933,1
725,827,42,0.057907665426405,1
725,828,42,0.0419523720513507,1
726,813,42,0.0500695652128779,1
726,820,42,0.0554021953246537,1
726,821,42,0.0548414250094099,1
727,812,42,0.0587188378513307,1
727,813,42,0.0660064243255661,1
727,814,42,0.047680653500359,1
727,820,42,0.0418998050720709,1
728,812,42,0.0534199349513571,1
728,813,42,0.0600779450030395,1
728,814,42,0.045077789180942,1
729,813,42,0.0415313090604678,1
737,846,42,0.044273440055358,1
737,847,42,0.0428766479619594,1
737,848,42,0.0410121922302712,1
738,845,42,0.0522765240785259,1
738,846,42,0.0599396677600382,1
738,847,42,0.058921860743792,1
738,848,42,0.0558865792903717,1
738,849,42,0.0487947814974095,1
739,845,42,0.0480028732686446,1
739,846,42,0.0548865604316806,1
739,847,42,0.0628482099425614,1
739,848,42,0.0728762756541998,1
739,849,42,0.069407433542362,1
739,850,42,0.0526016959240227,1
740,846,42,0.0429918492607523,1
740,847,42,0.0598251855569763,1
740,848,42,0.0814843057194517,1
740,849,42,0.0854142612103456,1
740,850,42,0.0666611636919677,1
740,851,42,0.0491966803167257,1
741,847,42,0.0562729445605523,1
741,848,42,0.0757382388162555,1
741,849,42,0.0845857277599154,1
741,850,42,0.0769770785586458,1
741,851,42,0.0619063567370554,1
742,847,42,0.0545695311288216,1
742,848,42,0.0623077581367682,1
742,849,42,0.0675943174611496,1
742,850,42,0.0751427356365332,1
742,851,42,0.0771564307660686,1
742,852,42,0.0741686420713002,1
743,813,42,0.0453124982428112,1
743,847,42,0.0477662907731605,1
743,848,42,0.0531261167610769,1
743,849,42,0.0598547063290892,1
743,850,42,0.0818496225709811,1
743,851,42,0.105033847457585,1
743,852,42,0.10706609850102,1
743,853,42,0.0741305462177641,1
744,848,42,0.0442218003310998,1
744,849,42,0.0585294399306139,1
744,850,42,0.0894240363273755,1
744,851,42,0.119260869937577,1
744,852,42,0.117682492655275,1
744,853,42,0.0733900992910084,1
745,849,42,0.0534045906379402,1
745,850,42,0.0790102811874089,1
745,851,42,0.0974184614647303,1
745,852,42,0.0927771148399991,1
745,853,42,0.0602461647434695,1
746,849,42,0.0487417035816893,1
746,850,42,0.0631360590976013,1
746,851,42,0.065098336179006,1
746,852,42,0.0586094704194078,1
747,850,42,0.0451443217562597,1
747,851,42,0.0421267446560049,1
760,840,42,0.0455764766636242,1
761,839,42,0.0420769837720964,1
761,840,42,0.0455878956875624,1
762,818,42,0.0422887980153736,1
762,819,42,0.0411071750442076,1
763,824,42,0.0451144955036296,1
763,825,42,0.0471407531815174,1
763,826,42,0.0415796128293426,1
764,824,42,0.0441413373035203,1
764,825,42,0.0464250961339078,1
764,826,42,0.0416060706861804,1
765,825,42,0.0412320652117965,1
724,826,43,0.0426559855971505,1
726,812,43,0.0523847128422582,1
726,813,43,0.0551310475734704,1
727,811,43,0.0438282711372837,1
727,812,43,0.0724097609470592,1
727,813,43,0.0796155110830711,1
727,814,43,0.0512064880039261,1
728,811,43,0.0416662881952293,1
728,812,43,0.067380270236392,1
728,813,43,0.0735496358153187,1
728,814,43,0.0477672153248146,1
729,812,43,0.044640984481633,1
729,813,43,0.0467364916190852,1
737,846,43,0.0417918947551817,1
737,847,43,0.0412231116589359,1
737,848,43,0.042118099287029,1
738,845,43,0.0538394705396536,1
738,846,43,0.0564186993178085,1
738,847,43,0.0552808844155151,1
738,848,43,0.0587027420017739,1
738,849,43,0.0515260746923546,1
739,845,43,0.0457666044935416,1
739,846,43,0.0504395697034955,1
739,847,43,0.0618989603238228,1
739,848,43,0.0814328173837684,1
739,849,43,0.0759263499340854,1
739,850,43,0.053074974456422,1
740,846,43,0.0417912216166968,1
740,847,43,0.0650327741125883,1
740,848,43,0.0950089717194896,1
740,849,43,0.09364465788215,1
740,850,43,0.0648461606603033,1
741,847,43,0.0577322925758091,1
741,848,43,0.0788644399223956,1
741,849,43,0.0817204610828851,1
741,850,43,0.0659450200382243,1
742,847,43,0.0536949485179361,1
742,848,43,0.0596223951541123,1
742,849,43,0.0623434642135143,1
742,850,43,0.0654615173702818,1
742,851,43,0.067891179643133,1
743,813,43,0.0431092646174536,1
743,847,43,0.0447266379746389,1
743,848,43,0.047230661774826,1
743,849,43,0.052608027210496,1
743,850,43,0.0745812840727022,1
743,851,43,0.0987712481434354,1
743,852,43,0.0924798093057605,1
744,849,43,0.0485768468303168,1
744,850,43,0.084141369852064,1
744,851,43,0.122431790147407,1
744,852,43,0.114881652630351,1
744,853,43,0.0672328556115463,1
745,849,43,0.0463773384452497,1
745,850,43,0.077286808769499,1
745,851,43,0.105576456550571,1
745,852,43,0.0972082368014899,1
745,853,43,0.0581784401128857,1
746,849,43,0.044100943587686,1
746,850,43,0.0590508978769872,1
746,851,43,0.0669501536680543,1
746,852,43,0.0599839813586164,1
747,850,43,0.0425704834927196,1
762,818,43,0.0445177487748988,1
763,825,43,0.0422406050845626,1
763,826,43,0.04133072460541,1
764,824,43,0.0433534273551542,1
764,825,43,0.0493703662660579,1
764,826,43,0.0486281134898726,1
764,827,43,0.044463776044566,1
765,824,43,0.0413096383396151,1
765,825,43,0.0461371334374368,1
765,826,43,0.0456101389946086,1
724,820,44,0.0412042070106405,1
725,820,44,0.0416853523422019,1
726,812,44,0.0512057148408469,1
726,813,44,0.0528085521914707,1
727,811,44,0.0430024707913046,1
727,812,44,0.0733867525221553,1
727,813,44,0.0793529924806592,1
727,814,44,0.0494667737546192,1
728,811,44,0.0418011646020293,1
728,812,44,0.06964150731289,1
728,813,44,0.0745397008752076,1
728,814,44,0.0462727938207855,1
729,812,44,0.0451500528951681,1
729,813,44,0.0460404772390738,1
738,845,44,0.0466682153717883,1
738,846,44,0.0458207421292864,1
738,847,44,0.0470047575806099,1
738,848,44,0.0553923226268738,1
738,849,44,0.0495256963506789,1
739,846,44,0.0417640068169843,1
739,847,44,0.0546944861772283,1
739,848,44,0.0784109608529042,1
739,849,44,0.0734022320039427,1
739,850,44,0.0521990726022407,1
740,847,44,0.0607813557962836,1
740,848,44,0.0929164355828205,1
740,849,44,0.0913859835979562,1
740,850,44,0.0661592727189051,1
741,847,44,0.0519600300424139,1
741,848,44,0.0727498932278008,1
741,849,44,0.0755635688411862,1
741,850,44,0.0639310707921524,1
742,847,44,0.0469123889229585,1
742,848,44,0.0534472984362771,1
742,849,44,0.056147259602945,1
742,851,44,0.059608197068477,1
743,848,44,0.0420087805157195,1
743,849,44,0.0477108447075895,1
743,850,44,0.0650169431930376,1
743,851,44,0.0827354241566164,1
743,852,44,0.0740683795808128,1
744,849,44,0.0462875974607205,1
744,850,44,0.0768725501543861,1
744,851,44,0.107717188321418,1
744,852,44,0.0950923327569321,1
744,853,44,0.0568781149821314,1
745,849,44,0.0447443936917851,1
745,850,44,0.0749065207990168,1
745,851,44,0.10169230151033,1
745,852,44,0.0877624331760017,1
745,853,44,0.0523390583734448,1
746,850,44,0.0542456568996814,1
746,851,44,0.0649682879863996,1
746,852,44,0.0561506712526159,1
762,818,44,0.0418789161520969,1
763,825,44,0.0480103832233084,1
763,826,44,0.0548665933599933,1
763,827,44,0.0467246076159526,1
764,824,44,0.0450186989761028,1
764,825,44,0.0676276716082493,1
764,826,44,0.0790666896517777,1
764,827,44,0.0634248922783782,1
765,824,44,0.044542025014237,1
765,825,44,0.064340852630835,1
765,826,44,0.0734823273735544,1
765,827,44,0.0584468736831897,1
766,825,44,0.0459345917443744,1
766,826,44,0.0480907597431308,1
724,819,45,0.0431206566077177,1
724,820,45,0.0493729452785667,1
724,821,45,0.0441431864068285,1
725,819,45,0.0429421045970482,1
725,820,45,0.0514085809379984,1
725,821,45,0.0465555714585649,1
726,812,45,0.047211013700493,1
726,813,45,0.0483503803356795,1
727,811,45,0.0411371121349016,1
727,812,45,0.0641593809833631,1
727,813,45,0.0684283874080347,1
727,814,45,0.0453897821103169,1
728,812,45,0.0604601579008789,1
728,813,45,0.0635221432175712,1
728,814,45,0.0416826381613226,1
729,812,45,0.0415884312138327,1
729,813,45,0.0411989381475592,1
736,814,45,0.0416256214392867,1
736,815,45,0.0422683227106133,1
737,814,45,0.0474536463322398,1
737,815,45,0.0495901986970721,1
738,814,45,0.0436902804512279,1
738,815,45,0.0438039489406995,1
738,848,45,0.048304341988694,1
738,849,45,0.0454336253229659,1
739,847,45,0.0469017971294477,1
739,848,45,0.0667745915817398,1
739,849,45,0.0662374378841864,1
739,850,45,0.0511868020824493,1
740,811,45,0.0414176432743636,1
740,812,45,0.0444080380153148,1
740,813,45,0.0422894711538586,1
740,847,45,0.0519434692136627,1
740,848,45,0.0774737952864864,1
740,849,45,0.0810417482542951,1
740,850,45,0.0661376457796282,1
741,811,45,0.0434546576511743,1
741,812,45,0.0481521478102681,1
741,813,45,0.0438383682145586,1
741,847,45,0.0449175930349837,1
741,848,45,0.0622817193018789,1
741,849,45,0.0682989663966673,1
742,811,45,0.04350457803376,1
742,812,45,0.0485439630691464,1
742,813,45,0.0420090670726649,1
742,848,45,0.0472899682490579,1
742,849,45,0.0507324471219172,1
743,812,45,0.0443788200203518,1
743,849,45,0.043776212391077,1
743,851,45,0.0626085402014956,1
744,849,45,0.0438829224128363,1
744,850,45,0.0633052790839728,1
744,851,45,0.0791112465534228,1
744,852,45,0.0691176974368703,1
745,849,45,0.0436362860939559,1
745,850,45,0.06533118262073,1
745,851,45,0.0809690979585294,1
745,852,45,0.0690028259489014,1
746,850,45,0.0487431417731512,1
746,851,45,0.0566465985971729,1
763,825,45,0.0559570452652704,1
763,826,45,0.069860566580825,1
763,827,45,0.0541257301146565,1
764,824,45,0.049474613520107,1
764,825,45,0.0878688971913267,1
764,826,45,0.112706717855037,1
764,827,45,0.0832872679526737,1
764,828,45,0.0444583395727053,1
765,824,45,0.0496364479067156,1
765,825,45,0.0837011102492055,1
765,826,45,0.104821762877566,1
765,827,45,0.0776425394801939,1
766,825,45,0.0538574803733363,1
766,826,45,0.0611039486292716,1
724,819,46,0.0421065991620686,1
724,820,46,0.04777707180239,1
725,819,46,0.044196986121647,1
725,820,46,0.0509035540587407,1
725,821,46,0.0424940484825804,1
726,813,46,0.041593343232416,1
727,812,46,0.0492672273926467,1
727,813,46,0.0524445924303809,1
728,812,46,0.0455842299213549,1
728,813,46,0.0472196428492645,1
736,814,46,0.0419149439295647,1
736,815,46,0.0418175199748574,1
737,814,46,0.0512205184807819,1
737,815,46,0.0533213485486637,1
738,814,46,0.0481936066528618,1
738,815,46,0.0496198924846992,1
739,811,46,0.0417059330782912,1
739,812,46,0.0420162607333418,1
739,848,46,0.0529874502331687,1
739,849,46,0.0582254030115253,1
740,811,46,0.0525370692227287,1
740,812,46,0.0587112413889097,1
740,813,46,0.0493364011579236,1
740,847,46,0.0419505824221255,1
740,848,46,0.0603457351719,1
740,849,46,0.0698859403873316,1
741,811,46,0.0575032362551934,1
741,812,46,0.0707043145830365,1
741,813,46,0.0578413247901733,1
741,848,46,0.051174042188276,1
741,849,46,0.0596960240688802,1
742,811,46,0.054926235051784,1
742,812,46,0.0681521465126517,1
742,813,46,0.0548526385774249,1
742,849,46,0.0446261970619024,1
743,811,46,0.0422378016925589,1
743,812,46,0.0490178525625804,1
744,850,46,0.050475859707602,1
744,851,46,0.0551735445091494,1
745,850,46,0.052751813916278,1
745,851,46,0.0579151537541296,1
746,850,46,0.0420202211665969,1
763,825,46,0.060631962306494,1
763,826,46,0.0780144633616724,1
763,827,46,0.0573428725004557,1
764,824,46,0.0508687887538532,1
764,825,46,0.0994033170707401,1
764,826,46,0.131921053107372,1
764,827,46,0.094220821171424,1
764,828,46,0.0466964006804008,1
765,824,46,0.0502329891795232,1
765,825,46,0.0926951811805489,1
765,826,46,0.120839225592939,1
765,827,46,0.0872943721427028,1
766,825,46,0.056273371692603,1
766,826,46,0.0669203030851175,1
725,818,47,0.0415882636050533,1
737,814,47,0.0464865490818629,1
737,815,47,0.0471237598139806,1
738,814,47,0.0463899091037044,1
738,815,47,0.0471895165228518,1
739,811,47,0.0456691805388343,1
739,812,47,0.0478358808570185,1
739,813,47,0.0423730268337547,1
740,810,47,0.0436303143553481,1
740,811,47,0.0652209284842967,1
740,812,47,0.0819959071882496,1
740,813,47,0.0668413755702267,1
740,848,47,0.044961557899166,1
741,810,47,0.0443213031753451,1
741,811,47,0.0739357361554932,1
741,812,47,0.10270253909783,1
741,813,47,0.0831966618905734,1
741,814,47,0.0449730850578006,1
741,848,47,0.0410915117334364,1
741,849,47,0.0494018821233191,1
742,811,47,0.0636497691929787,1
742,812,47,0.08765317928551,1
742,813,47,0.0716231026578038,1
743,811,47,0.0425696914060685,1
743,812,47,0.0520074903606569,1
743,813,47,0.0439734149335054,1
744,850,47,0.0428170441173125,1
745,850,47,0.0427518118617187,1
763,825,47,0.057519159089236,1
763,826,47,0.0717924415923414,1
763,827,47,0.0533516154501816,1
764,824,47,0.0489104748090709,1
764,825,47,0.0910257652973613,1
764,826,47,0.118203085524077,1
764,827,47,0.086427396807708,1
765,824,47,0.0471852073552009,1
765,825,47,0.0829519476659212,1
765,826,47,0.106791274170159,1
765,827,47,0.0797092097974879,1
766,825,47,0.052797030439571,1
766,826,47,0.062651145271871,1
725,817,48,0.0415177435628064,1
739,811,48,0.0491866562303708,1
739,812,48,0.0555732644143334,1
739,813,48,0.0468651340606386,1
740,810,48,0.0475802828751753,1
740,811,48,0.0811463090989638,1
740,812,48,0.110192229319607,1
740,813,48,0.0859732094559553,1
740,814,48,0.0420558028884421,1
741,810,48,0.0513880894130336,1
741,811,48,0.0966335008902081,1
741,812,48,0.139371425553544,1
741,813,48,0.109336959565496,1
741,814,48,0.0487736087238575,1
742,810,48,0.0413051507497151,1
742,811,48,0.0712379539029575,1
742,812,48,0.0996732428998542,1
742,813,48,0.0798136516939906,1
743,811,48,0.0423896444332215,1
743,812,48,0.0508320716176959,1
743,813,48,0.0437769774440539,1
763,825,48,0.0464192838939771,1
763,826,48,0.0557428088047941,1
763,827,48,0.0435600592431073,1
764,825,48,0.0701195708056044,1
764,826,48,0.0878443289883082,1
764,827,48,0.0681959626916266,1
764,828,48,0.0441364306916719,1
765,825,48,0.0635159687264077,1
765,826,48,0.0791603126719071,1
765,827,48,0.0631696565477678,1
766,826,48,0.0516993929837192,1
739,811,49,0.050290176213706,1
739,812,49,0.0591037865569887,1
739,813,49,0.0485610970117885,1
740,810,49,0.0500457323257948,1
740,811,49,0.0866265917319173,1
740,812,49,0.11946263846756,1
740,813,49,0.0909778291864542,1
740,814,49,0.042651692649704,1
741,809,49,0.0475803423492583,1
741,810,49,0.0563949583452173,1
741,811,49,0.105830227056045,1
741,812,49,0.150724249430584,1
741,813,49,0.115160034592722,1
741,814,49,0.0496748681643409,1
742,810,49,0.0432018982051111,1
742,811,49,0.0710315680214387,1
742,812,49,0.0964142253528803,1
742,813,49,0.0753316956117297,1
743,811,49,0.0417170763587536,1
743,812,49,0.0478583890940709,1
743,813,49,0.0417171655698781,1
764,825,49,0.0491461273461661,1
764,826,49,0.0572116402329239,1
764,827,49,0.050145940748934,1
765,826,49,0.0527011311840827,1
739,811,50,0.0456672287075646,1
739,812,50,0.0525301161617512,1
739,813,50,0.0427527715571491,1
740,810,50,0.0470419180690223,1
740,811,50,0.0746538154203018,1
740,812,50,0.0991916001486895,1
740,813,50,0.0738659568359165,1
741,808,50,0.0457361537630399,1
741,809,50,0.0434295514780413,1
741,810,50,0.0533044525023537,1
741,811,50,0.0907784396197915,1
741,812,50,0.122917152732127,1
741,813,50,0.090916916911981,1
742,810,50,0.0415248696392981,1
742,811,50,0.060483660977138,1
742,812,50,0.0771133661232336,1
742,813,50,0.0581499844675322,1
743,812,50,0.0417227534303137,1
740,811,51,0.0532665458845362,1
740,812,51,0.0637189483649904,1
740,813,51,0.0487293762263015,1
741,810,51,0.0435473615263844,1
741,811,51,0.0621583159863653,1
741,812,51,0.0760410754402142,1
741,813,51,0.0575984218216855,1
742,811,51,0.0460525180375162,1
742,812,51,0.053077007388714,1
742,813,51,0.0417984342009456,1
746,807,51,0.0485224875184445,1
740,849,52,0.045022640485786,1
741,849,52,0.0484069672222973,1
741,849,53,0.0502225920284659,1
741,848,54,0.0413636678406634,1
744,849,55,0.0482276744889576,1
745,849,55,0.0448804514701431,1
736,845,56,0.0415979200334404,1
737,846,56,0.043061179821339,1
738,809,56,0.0436447530406828,1
733,813,57,0.0423030636851941,1
736,845,57,0.0458943656373195,1
738,809,57,0.042235017224127,1
725,818,58,0.0452643999298595,1
725,819,58,0.0442010519862311,1
726,818,58,0.042536258861314,1
733,813,58,0.0468342453846165,1
733,814,58,0.0446021992694074,1
734,808,58,0.0417322098095125,1
734,809,58,0.0409990079074146,1
736,845,58,0.0490694003723467,1
737,845,58,0.0419074366782682,1
751,807,58,0.0419636640170206,1
751,808,58,0.041713832317862,1
752,808,58,0.0420452921959536,1
754,809,58,0.0455791475906249,1
754,810,58,0.0505154045660697,1
755,809,58,0.0465742138802215,1
755,810,58,0.0517943136202052,1
759,841,58,0.0416371891484323,1
723,820,59,0.0449585139074628,1
723,821,59,0.0424813318422856,1
724,819,59,0.0437443640196245,1
724,820,59,0.0457056597786595,1
724,821,59,0.0446976767995798,1
724,826,59,0.0455830242194903,1
724,827,59,0.044448015412568,1
725,818,59,0.0452769354445378,1
725,819,59,0.0463217626180431,1
725,825,59,0.0493869811621573,1
725,826,59,0.0580793454771193,1
725,827,59,0.0513278583871476,1
726,818,59,0.042955448418582,1
726,825,59,0.0535987681122372,1
726,826,59,0.0630925511025111,1
726,827,59,0.0549436663648411,1
727,825,59,0.044386543541041,1
727,826,59,0.0503273853627318,1
727,827,59,0.0455103739237246,1
732,808,59,0.0423638164609901,1
733,807,59,0.0437661315340066,1
733,808,59,0.0468900266677463,1
733,809,59,0.0413942023755549,1
733,813,59,0.0428433073316968,1
733,842,59,0.0426967442675851,1
734,807,59,0.0445048266786809,1
734,808,59,0.0486390026537985,1
734,809,59,0.0440097130477141,1
734,841,59,0.0443768519688776,1
734,842,59,0.0554857942584283,1
734,843,59,0.0526443983156248,1
735,808,59,0.0432303646639342,1
735,842,59,0.0501695735868287,1
735,843,59,0.0481241949912528,1
737,845,59,0.0433887792907696,1
750,807,59,0.0419425912680627,1
750,808,59,0.0473585040196262,1
751,807,59,0.0522979185282055,1
751,808,59,0.0583885458279601,1
751,809,59,0.0464381750254354,1
752,807,59,0.0479982775440482,1
752,808,59,0.0523160959706676,1
752,809,59,0.0433127849295182,1
753,809,59,0.0430930146759545,1
753,810,59,0.0471760483464172,1
754,809,59,0.0545989545797077,1
754,810,59,0.0708978702828293,1
754,811,59,0.0580478242131233,1
755,808,59,0.0435181327179518,1
755,809,59,0.0581783806388027,1
755,810,59,0.0708660732753576,1
755,811,59,0.0564180775433043,1
756,809,59,0.0460862722829925,1
756,810,59,0.0465706238083016,1
758,842,59,0.0445755413633813,1
759,841,59,0.0504468471685622,1
722,820,60,0.0538225961202828,1
722,821,60,0.0440083235168656,1
723,819,60,0.0688508967004817,1
723,820,60,0.0822634973079219,1
723,821,60,0.0633506091486971,1
723,822,60,0.0416734034582514,1
724,818,60,0.0441122139264167,1
724,819,60,0.0666974320691349,1
724,820,60,0.0767315262900967,1
724,821,60,0.0607271100258425,1
724,822,60,0.0417769667603459,1
724,825,60,0.0415162729309356,1
724,826,60,0.0493259553462529,1
724,827,60,0.0479842146267835,1
725,818,60,0.0440880593386119,1
725,819,60,0.0514366364849753,1
725,820,60,0.0521496226055842,1
725,821,60,0.04537847662781,1
725,824,60,0.0425610298168882,1
725,825,60,0.0611063654397358,1
725,826,60,0.0715627310568125,1
725,827,60,0.0558990310006603,1
726,824,60,0.0519651015596743,1
726,825,60,0.0842787171366763,1
726,826,60,0.0959064896994781,1
726,827,60,0.0679901499239986,1
727,824,60,0.0461140520864936,1
727,825,60,0.0714638202500299,1
727,826,60,0.0778764510486773,1
727,827,60,0.0551036732750807,1
728,808,60,0.043611431333992,1
728,826,60,0.0413823372959942,1
729,807,60,0.0409931443035031,1
729,808,60,0.0473067886010805,1
729,809,60,0.0415861522751064,1
732,807,60,0.0451426429650984,1
732,808,60,0.044156046325596,1
733,806,60,0.0410385392490452,1
733,807,60,0.050271036372446,1
733,808,60,0.0509227101202051,1
733,809,60,0.0417656802014108,1
734,807,60,0.0480394876768402,1
734,808,60,0.0515239228118966,1
734,809,60,0.0435139127614254,1
734,841,60,0.0529933165404475,1
734,842,60,0.0720206869027342,1
735,808,60,0.0455954164556959,1
735,809,60,0.0422088594410717,1
735,841,60,0.0466938324813617,1
735,842,60,0.0611602922128226,1
735,843,60,0.0570658854756677,1
736,844,60,0.0431985865800343,1
743,845,60,0.0420545133821877,1
750,807,60,0.0485936401486653,1
750,808,60,0.0595653000344214,1
750,809,60,0.047911737346532,1
751,807,60,0.0587145665308235,1
751,808,60,0.0716953528551929,1
751,809,60,0.0554537593546244,1
752,807,60,0.0488005991440749,1
752,808,60,0.0567932292454698,1
752,809,60,0.0466094982316517,1
753,809,60,0.0434983819156572,1
753,810,60,0.0521969153150478,1
753,811,60,0.0467588268406234,1
754,809,60,0.0569840112903004,1
754,810,60,0.0795769772840146,1
754,811,60,0.0722643035602181,1
754,812,60,0.0420863293132314,1
755,808,60,0.0470503687955447,1
755,809,60,0.0640095657682577,1
755,810,60,0.0793418167597879,1
755,811,60,0.0678672926887017,1
756,808,60,0.0475408083042602,1
756,809,60,0.0572292553749648,1
756,810,60,0.0555689336197432,1
756,811,60,0.0425622841793662,1
757,809,60,0.0421734480313732,1
758,841,60,0.0410749427945829,1
722,819,61,0.057169170330919,1
722,820,61,0.0667302347292831,1
722,821,61,0.0509367622240002,1
723,818,61,0.049893446232877,1
723,819,61,0.0937331012503226,1
723,820,61,0.111538376527954,1
723,821,61,0.077945484238849,1
723,822,61,0.0437879504123695,1
724,818,61,0.0487375458026133,1
724,819,61,0.0858655829926442,1
724,820,61,0.100858150462423,1
724,821,61,0.0715150815028508,1
724,822,61,0.0424500484746217,1
724,826,61,0.0495713021588789,1
725,819,61,0.0526641653381238,1
725,820,61,0.0586423704007827,1
725,821,61,0.0487556745844622,1
725,824,61,0.0456517654459817,1
725,825,61,0.0650624300530716,1
725,826,61,0.0714517848583223,1
725,827,61,0.0532821605346941,1
726,824,61,0.0616662977110826,1
726,825,61,0.100391927718963,1
726,826,61,0.105955295645883,1
726,827,61,0.0676085533939286,1
727,824,61,0.0547583451221779,1
727,825,61,0.0862632699655362,1
727,826,61,0.0879743825876494,1
727,827,61,0.0552610471054634,1
728,808,61,0.0453719344786787,1
728,825,61,0.0453030337535102,1
728,826,61,0.0450553674516467,1
729,807,61,0.0432018576546,1
729,808,61,0.0507044077951448,1
729,809,61,0.0444153668443623,1
730,808,61,0.0448946846995547,1
731,807,61,0.0414969844044681,1
732,806,61,0.0464984547119348,1
732,807,61,0.0480867209122208,1
732,808,61,0.0442534648735685,1
733,806,61,0.0473488259642998,1
733,807,61,0.0525857784967149,1
733,808,61,0.0495462257227874,1
734,807,61,0.0473630997442225,1
734,808,61,0.0485616647189445,1
734,809,61,0.0410357250435718,1
734,841,61,0.0527907370002414,1
735,808,61,0.0440689384209237,1
735,809,61,0.0415837435747445,1
735,841,61,0.0463146257280817,1
735,842,61,0.0585243359729445,1
736,809,61,0.042018901923301,1
746,807,61,0.0409868427540713,1
750,807,61,0.0485665415937514,1
750,808,61,0.0615505449253382,1
750,809,61,0.0497401977411614,1
751,807,61,0.054771980907392,1
751,808,61,0.0694122563498208,1
751,809,61,0.0549802483326279,1
752,808,61,0.0525054236038318,1
752,809,61,0.0453186213699939,1
753,810,61,0.049680637150393,1
753,811,61,0.0482110595928582,1
754,809,61,0.0518256240215432,1
754,810,61,0.0697539565836599,1
754,811,61,0.0683968715507735,1
754,812,61,0.0441083805514299,1
755,808,61,0.0446672747296914,1
755,809,61,0.0604306533489705,1
755,810,61,0.0705445671960682,1
755,811,61,0.0634091532733194,1
755,812,61,0.0410446731896976,1
756,808,61,0.0487906615654772,1
756,809,61,0.0617431652600073,1
756,810,61,0.0575727019841506,1
756,811,61,0.0439088936635404,1
757,809,61,0.04760436447206,1
757,810,61,0.0420646023493604,1
722,819,62,0.0604598334967897,1
722,820,62,0.0696996243054617,1
722,821,62,0.0513857482968569,1
723,818,62,0.0521386631541057,1
723,819,62,0.102462599020023,1
723,820,62,0.120161004777218,1
723,821,62,0.0806195849928765,1
723,822,62,0.0418458755956167,1
724,818,62,0.0482250251888962,1
724,819,62,0.0902884434633311,1
724,820,62,0.105918810999323,1
724,821,62,0.0723300062017411,1
725,819,62,0.0501442160005267,1
725,820,62,0.0583897731567641,1
725,821,62,0.0480282687020904,1
725,825,62,0.0568386241910119,1
725,826,62,0.0571767613866052,1
726,824,62,0.057325906166593,1
726,825,62,0.0870447972634482,1
726,826,62,0.0840526994010289,1
726,827,62,0.0532694655213386,1
727,824,62,0.0510916057024875,1
727,825,62,0.0767789866083397,1
727,826,62,0.0730294106044842,1
727,827,62,0.0461141223740462,1
728,825,62,0.0418657750831188,1
729,807,62,0.0426009207063843,1
729,808,62,0.0474413892644046,1
729,809,62,0.0420874349905019,1
730,807,62,0.0433453578034366,1
730,808,62,0.0457228477886498,1
731,807,62,0.042807384985558,1
731,808,62,0.0416679669863907,1
732,805,62,0.0411162502486017,1
732,806,62,0.047454895287983,1
732,807,62,0.0472779598910245,1
732,808,62,0.0418435020390311,1
733,806,62,0.0501341594737629,1
733,807,62,0.0506406083242781,1
733,808,62,0.0442151149034958,1
733,838,62,0.0430522505987851,1
733,839,62,0.0409877591956232,1
734,807,62,0.0444133960895206,1
734,808,62,0.0428973746798889,1
734,841,62,0.0477679452340152,1
735,841,62,0.0437519226349017,1
735,842,62,0.0501357814942087,1
736,809,62,0.0421675628005225,1
750,807,62,0.0436419253183723,1
750,808,62,0.053706286440852,1
750,809,62,0.0443997657110414,1
751,808,62,0.0558031371519068,1
753,811,62,0.0426925567514676,1
754,809,62,0.0436420631901102,1
754,810,62,0.0537212739097708,1
755,809,62,0.0518840437912647,1
755,810,62,0.0564758160644386,1
755,811,62,0.0505265370330625,1
756,808,62,0.0433791877432003,1
756,809,62,0.0565893520889071,1
756,810,62,0.0530229508539916,1
757,809,62,0.0459802786535967,1
757,810,62,0.0411760135919258,1
722,820,63,0.0596055639886201,1
723,819,63,0.0859123134016866,1
723,820,63,0.0994857481497937,1
723,821,63,0.067072270180681,1
724,818,63,0.0441259956934708,1
724,819,63,0.0740083810445241,1
724,820,63,0.0864760790480202,1
724,821,63,0.0607283752017902,1
725,819,63,0.0458832980511446,1
725,820,63,0.0530128564800841,1
725,821,63,0.0449959636561881,1
726,824,63,0.0463710936665335,1
726,825,63,0.0598660712856792,1
726,826,63,0.0539879502912586,1
727,824,63,0.0422834534580049,1
727,825,63,0.0550986882655774,1
727,826,63,0.0503449680643638,1
730,807,63,0.0420820471792545,1
730,808,63,0.0432842860302862,1
731,807,63,0.0414650630420955,1
731,808,63,0.0420468466322141,1
732,806,63,0.0419547050574251,1
732,807,63,0.0427043542468431,1
733,806,63,0.044588409392251,1
733,807,63,0.0436601243877738,1
733,838,63,0.0477324986805404,1
733,839,63,0.0478766368240857,1
734,838,63,0.0420438648179613,1
734,839,63,0.0433022174663141,1
750,808,63,0.0411726533062356,1
755,809,63,0.0411444139302749,1
755,810,63,0.0418793297673106,1
756,809,63,0.0445895853570742,1
756,810,63,0.0431612909232514,1
723,820,64,0.0696475087885393,1
724,819,64,0.053286886020926,1
724,820,64,0.0614381821623254,1
725,820,64,0.0452098054250226,1
731,808,64,0.04463546690875,1
732,808,64,0.0439155115069591,1
733,838,64,0.0471590495721456,1
734,839,64,0.0418056278616225,1
738,810,64,0.0414461529870653,1
731,808,65,0.0476075598523382,1
731,809,65,0.0443387317850348,1
732,808,65,0.0500280198625271,1
732,809,65,0.0464628946170289,1
737,810,65,0.042779705206651,1
737,811,65,0.0432238279215378,1
738,809,65,0.041701094050628,1
738,810,65,0.0604547673862641,1
738,811,65,0.0645249681716335,1
738,812,65,0.0466957518722225,1
739,810,65,0.0624000781338062,1
739,811,65,0.0671021910511705,1
739,812,65,0.0478697918978046,1
740,810,65,0.0439654427030145,1
740,811,65,0.0462164177968256,1
729,827,66,0.0439553321089025,1
730,827,66,0.0448594111615942,1
731,808,66,0.0471566003212725,1
731,809,66,0.0462251226398846,1
731,818,66,0.0446941894556214,1
731,819,66,0.0427033458907994,1
732,808,66,0.0501853017784178,1
732,809,66,0.0485049751043651,1
732,818,66,0.0514657571587115,1
732,819,66,0.0482040632780021,1
737,810,66,0.0454084731925869,1
737,811,66,0.0505379560570007,1
738,809,66,0.0446591538139929,1
738,810,66,0.0774941678632852,1
738,811,66,0.088213971227693,1
738,812,66,0.0579605054457931,1
739,809,66,0.0475600995340952,1
739,810,66,0.0856680749696985,1
739,811,66,0.0961710844880605,1
739,812,66,0.0612311636928328,1
740,810,66,0.0560219044561616,1
740,811,66,0.0610733248832556,1
740,812,66,0.0430587332738333,1
748,813,66,0.0503023900276626,1
748,814,66,0.0423199110708908,1
749,812,66,0.0427350050265332,1
749,813,66,0.0590503896439142,1
749,814,66,0.0494249634742623,1
750,813,66,0.0430892218514788,1
729,827,67,0.04468795008364,1
730,826,67,0.0426502950087533,1
730,827,67,0.0491220673762206,1
731,808,67,0.0419874590569599,1
731,818,67,0.0493036093112451,1
731,819,67,0.0469742852231688,1
732,808,67,0.0432835534177182,1
732,817,67,0.0418111265109337,1
732,818,67,0.0596412376249572,1
732,819,67,0.055919706354609,1
733,818,67,0.0428377870554464,1
733,819,67,0.0411968727748583,1
737,810,67,0.0489068198563331,1
737,811,67,0.0555198080271759,1
737,812,67,0.0438561293384397,1
738,809,67,0.0481417668794152,1
738,810,67,0.08504449461606,1
738,811,67,0.0978665608330766,1
738,812,67,0.0631374918823283,1
739,809,67,0.0530688594393415,1
739,810,67,0.0979648877124987,1
739,811,67,0.111137077856203,1
739,812,67,0.0694448319271065,1
740,810,67,0.0644187744930494,1
740,811,67,0.0714779696750518,1
740,812,67,0.0488317365298988,1
748,812,67,0.0420620584806279,1
748,813,67,0.0632662694922522,1
748,814,67,0.0525839348001416,1
749,812,67,0.0483092188635009,1
749,813,67,0.0732197222633855,1
749,814,67,0.0610359751591245,1
750,813,67,0.0486134233913688,1
750,814,67,0.041526399745252,1
730,826,68,0.0438598680955672,1
730,827,68,0.0443727212234757,1
731,818,68,0.042818479605407,1
732,818,68,0.0524416241329652,1
732,819,68,0.0500917598593107,1
737,810,68,0.0462854185465884,1
737,811,68,0.0513675654476599,1
737,812,68,0.0419573381372821,1
738,810,68,0.0747132300292301,1
738,811,68,0.0853047477965826,1
738,812,68,0.0590188846001227,1
739,810,68,0.0874169698547284,1
739,811,68,0.0990969390354748,1
739,812,68,0.0656629993433196,1
740,810,68,0.0609563069215635,1
740,811,68,0.0676619557137379,1
740,812,68,0.0478058734787719,1
748,813,68,0.0568946433704737,1
748,814,68,0.0472859564518221,1
749,812,68,0.0425269998279361,1
749,813,68,0.0635720419732177,1
749,814,68,0.0534385124921959,1
750,813,68,0.0414808425976653,1
739,811,69,0.0703834356849862,1
740,812,69,0.042647132068884,1
