x,y,z,signal,cytoplasm.p
736,993,52,0.0429901569527539,1
737,992,52,0.0460547023583831,1
735,993,53,0.0452812824593325,1
736,990,53,0.0518427201170415,1
736,992,53,0.0532315589035211,1
737,990,53,0.0449075121779132,1
737,991,53,0.0481973589268263,1
737,992,53,0.0455163213320257,1
738,989,53,0.0447703838660611,1
738,990,53,0.0474841889772335,1
738,991,53,0.044746999737968,1
739,989,53,0.0536515270306031,1
739,990,53,0.0562761183138911,1
739,991,53,0.0466867983193619,1
740,990,53,0.0530160086064837,1
740,991,53,0.0434992010359823,1
732,1007,54,0.0434033882882511,1
733,1006,54,0.0427715113000325,1
733,1007,54,0.0453620239337551,1
734,993,54,0.0417194066614606,1
736,990,54,0.0458874071696072,1
736,992,54,0.0477801374210325,1
737,990,54,0.0422363472808925,1
737,991,54,0.0452174262177502,1
737,992,54,0.043343400565432,1
738,989,54,0.0415793587128061,1
738,990,54,0.0446677667425599,1
738,991,54,0.0423105439028165,1
739,990,54,0.0546205598920452,1
739,991,54,0.0449461027476853,1
740,991,54,0.0464533030694596,1
731,1006,55,0.0422703421260683,1
731,1007,55,0.0517078761506505,1
732,1006,55,0.0577847865641688,1
732,1007,55,0.0828023487202086,1
732,1008,55,0.0794327796663863,1
733,1006,55,0.0619945297684871,1
733,1007,55,0.0928860605466062,1
733,1008,55,0.0883219707557067,1
734,990,55,0.0426030482565356,1
734,992,55,0.0428516823639317,1
734,1006,55,0.0475136286483241,1
734,1007,55,0.0669593829643907,1
734,1008,55,0.062748488125556,1
735,990,55,0.0415054297242557,1
735,992,55,0.0416314607128914,1
736,991,55,0.0434667065597189,1
738,990,55,0.0419765807065037,1
739,990,55,0.0493770489902944,1
739,991,55,0.0420740289915177,1
740,991,55,0.0458460402415054,1
731,1006,56,0.0455109902914939,1
731,1007,56,0.0618370586168776,1
731,1008,56,0.0593498308384064,1
732,1006,56,0.0696481954438613,1
732,1007,56,0.123273694453045,1
732,1008,56,0.121002995590613,1
733,1006,56,0.0776470757307072,1
733,1007,56,0.150199969168635,1
733,1008,56,0.150782663793571,1
734,1006,56,0.0519738929104903,1
734,1007,56,0.0980996776115416,1
734,1008,56,0.09965662259702,1
739,990,56,0.0429746315137205,1
740,991,56,0.0414101387264345,1
740,1004,56,0.0510512065799184,1
740,1005,56,0.0460977291540744,1
741,1005,56,0.0442665437650961,1
729,992,57,0.0441852426936197,1
730,989,57,0.0433351742184046,1
730,1005,57,0.0418561619086103,1
730,1006,57,0.0556438006767848,1
730,1007,57,0.0560825085467501,1
731,988,57,0.0425348774405677,1
731,989,57,0.0431784816366091,1
731,1005,57,0.0493756053920977,1
731,1006,57,0.0757385415934054,1
731,1007,57,0.0909009346038555,1
732,1005,57,0.0480190015586103,1
732,1006,57,0.0972161090073866,1
732,1007,57,0.162085464560064,1
732,1008,57,0.155984764513342,1
733,1006,57,0.0971338076899687,1
733,1007,57,0.194063759850314,1
733,1008,57,0.204938130949733,1
734,1006,57,0.0588665011859781,1
734,1007,57,0.119781041081063,1
734,1008,57,0.132544406378148,1
735,1007,57,0.0451996677972365,1
740,1006,57,0.0411267906781317,1
741,1006,57,0.0426562829675656,1
728,990,58,0.0484691284525138,1
728,991,58,0.0495218197218135,1
728,992,58,0.0468381166067471,1
729,989,58,0.0510746988427079,1
729,990,58,0.0522829526862259,1
729,991,58,0.0539255944185887,1
729,992,58,0.0506457663492957,1
729,993,58,0.0412690364644903,1
729,1006,58,0.0500021378229475,1
729,1007,58,0.0462041553222557,1
730,988,58,0.0527349340901724,1
730,989,58,0.052874395408099,1
730,990,58,0.0485013796257103,1
730,991,58,0.0476360911919791,1
730,992,58,0.044030323520845,1
730,1005,58,0.0662453479372269,1
730,1006,58,0.104177907268356,1
730,1007,58,0.0918200038288333,1
731,988,58,0.0470151817653413,1
731,989,58,0.0477546500730947,1
731,990,58,0.0456763877163483,1
731,1005,58,0.0858905621075089,1
731,1006,58,0.146363004109897,1
731,1007,58,0.142261563210742,1
732,1005,58,0.0703650852270098,1
732,1006,58,0.138543816654768,1
732,1007,58,0.181760194095724,1
732,1008,58,0.153947149988966,1
733,1005,58,0.041822018378227,1
733,1006,58,0.102255899547885,1
733,1007,58,0.188266615523281,1
733,1008,58,0.204205713024184,1
734,1006,58,0.0562338754947487,1
734,1007,58,0.11122957627549,1
735,1007,58,0.0459245460310803,1
727,990,59,0.0474798419624389,1
727,991,59,0.0469035056576506,1
727,992,59,0.0427554046370061,1
728,989,59,0.058801339217937,1
728,990,59,0.0639115686996595,1
728,991,59,0.0640819781676913,1
728,992,59,0.0513786438473045,1
728,993,59,0.0413616808656174,1
729,988,59,0.0553003486608642,1
729,989,59,0.0624778972680591,1
729,990,59,0.0683472809790117,1
729,991,59,0.0693058247749047,1
729,992,59,0.0557712806703521,1
729,993,59,0.0416439637871608,1
729,1005,59,0.0430527966790018,1
729,1006,59,0.060796505467247,1
729,1007,59,0.0515551899593561,1
730,987,59,0.045292109445808,1
730,988,59,0.05696024869077,1
730,989,59,0.0587252069849477,1
730,990,59,0.0576399725787712,1
730,991,59,0.0563186855371228,1
730,992,59,0.0489446994404765,1
730,1005,59,0.0860651672017604,1
730,1006,59,0.14966182603861,1
730,1007,59,0.123010310773062,1
731,988,59,0.0480283498031127,1
731,989,59,0.0482404451966006,1
731,990,59,0.0477811592939133,1
731,991,59,0.0459790945786713,1
731,992,59,0.0429676351988645,1
731,1005,59,0.115740382694746,1
731,1006,59,0.211977137383921,1
731,1007,59,0.186517796332538,1
731,1008,59,0.0939190496742248,1
732,1005,59,0.0828186229920144,1
732,1006,59,0.164171945153736,1
732,1007,59,0.17487662047412,1
732,1008,59,0.123892095154726,1
733,1005,59,0.042559286144909,1
733,1006,59,0.0912768973162439,1
733,1007,59,0.141934682837043,1
734,1006,59,0.0488454317891958,1
734,1007,59,0.0834683773489127,1
735,1007,59,0.0442226221547923,1
726,992,60,0.0414061458527705,1
726,993,60,0.0435215119272138,1
727,989,60,0.0471802980399851,1
727,990,60,0.0526632353797349,1
727,991,60,0.0505063915391261,1
727,992,60,0.0448798837629871,1
727,993,60,0.0421509533111579,1
728,988,60,0.0564329568775267,1
728,989,60,0.0672395491492524,1
728,990,60,0.079315437300605,1
728,991,60,0.076791059847191,1
728,992,60,0.0568773904796656,1
728,993,60,0.0414579207453993,1
729,987,60,0.0441376066564951,1
729,988,60,0.0588324063162082,1
729,989,60,0.0689779982226116,1
729,990,60,0.0850446027507564,1
729,991,60,0.0843251880224474,1
729,992,60,0.063486712884301,1
729,993,60,0.0424434035975289,1
729,1005,60,0.04393492168496,1
729,1006,60,0.0632448966695119,1
730,987,60,0.0447270029292392,1
730,988,60,0.0553015327357897,1
730,989,60,0.0611031646527228,1
730,990,60,0.0691041751930875,1
730,991,60,0.0685267359143961,1
730,992,60,0.0566483720061936,1
730,993,60,0.0418123862801465,1
730,1005,60,0.0896213010472543,1
730,1006,60,0.161875337218051,1
730,1007,60,0.127301592945189,1
731,987,60,0.0414204358528977,1
731,988,60,0.0482726260822445,1
731,989,60,0.0497797642265683,1
731,990,60,0.0515597802772176,1
731,991,60,0.0496438875738268,1
731,992,60,0.0453831967073071,1
731,1005,60,0.123191036291129,1
731,1006,60,0.232039410857952,1
731,1007,60,0.195537960166119,1
731,1008,60,0.0903826882579647,1
732,988,60,0.0417419040850434,1
732,989,60,0.0420459761479082,1
732,1005,60,0.08034718828595,1
732,1006,60,0.159150483444275,1
732,1007,60,0.149875121727228,1
733,1006,60,0.0736442374544504,1
733,1007,60,0.0928720246630155,1
734,1007,60,0.0581135160411767,1
735,1007,60,0.0417323530879852,1
726,991,61,0.0424701453079447,1
726,992,61,0.0465972465705514,1
726,993,61,0.0445106767657552,1
727,988,61,0.0418710817933439,1
727,989,61,0.0454223360606634,1
727,990,61,0.0523810957366642,1
727,991,61,0.048979972978437,1
727,992,61,0.0438964662835584,1
728,987,61,0.044622366390283,1
728,988,61,0.0557512270909076,1
728,989,61,0.0643494925930761,1
728,990,61,0.0783580072920849,1
728,991,61,0.0737276417457715,1
728,992,61,0.0550409659646476,1
729,987,61,0.0469082527708218,1
729,988,61,0.057689741572782,1
729,989,61,0.0658878654444505,1
729,990,61,0.0833642166026207,1
729,991,61,0.0814430901799249,1
729,992,61,0.0614398312164453,1
729,993,61,0.0410698523537506,1
729,1005,61,0.0470143815685881,1
729,1006,61,0.0620501001889589,1
730,987,61,0.0437109747287484,1
730,988,61,0.0512263793813259,1
730,989,61,0.0584168933386172,1
730,990,61,0.0687574250689272,1
730,991,61,0.0690792014849576,1
730,992,61,0.0559074925406524,1
730,993,61,0.0411238331941856,1
730,1005,61,0.0836514764235652,1
730,1006,61,0.140429177526634,1
731,988,61,0.0454557442751113,1
731,989,61,0.048514009758248,1
731,990,61,0.0495922965101819,1
731,991,61,0.0486218146438082,1
731,992,61,0.0427255053934559,1
731,1005,61,0.111076781949499,1
731,1006,61,0.197852604969161,1
731,1007,61,0.168282837025355,1
732,988,61,0.0416062545151642,1
732,989,61,0.0420956640408967,1
732,1005,61,0.0728950153970832,1
732,1006,61,0.132350099142215,1
732,1007,61,0.121319300391006,1
733,1005,61,0.0419558945390854,1
733,1006,61,0.0637515131288065,1
733,1007,61,0.0686078099030101,1
734,1007,61,0.0483089539334947,1
726,991,62,0.0425644090261502,1
726,992,62,0.0460092911926366,1
727,989,62,0.0415281353071289,1
727,990,62,0.0463065372527922,1
727,991,62,0.045221648877644,1
727,992,62,0.041445728558382,1
728,987,62,0.0440068501816274,1
728,988,62,0.0493671871059842,1
729,986,62,0.0410737208725138,1
729,1005,62,0.0471277067303987,1
730,987,62,0.0416262486205257,1
730,992,62,0.0527693533640315,1
730,1004,62,0.041106207238675,1
730,1005,62,0.0736663401863913,1
730,1006,62,0.105991304499779,1
731,988,62,0.0410048931382653,1
731,989,62,0.0451473468243911,1
731,990,62,0.0464568282605617,1
731,991,62,0.0461956883755288,1
731,1004,62,0.0427144296971787,1
731,1005,62,0.0917084196356345,1
731,1006,62,0.143587002624732,1
732,1005,62,0.0641998017328715,1
732,1006,62,0.101627453132909,1
733,1005,62,0.0413170050158063,1
733,1006,62,0.0575926474288986,1
733,1007,62,0.0583765807238052,1
736,1006,62,0.0426123045865461,1
726,992,63,0.0432216733377124,1
730,1005,63,0.0588274861875227,1
731,1005,63,0.0683702325683193,1
731,1006,63,0.090228396266429,1
732,1005,63,0.0525806204716974,1
732,1006,63,0.0715436398761659,1
733,1006,63,0.0495779145955628,1
735,1006,63,0.0450722067272411,1
731,1005,64,0.0488406738625549,1
