x,y,z,signal,cytoplasm.p
558,949,4,0.0522993459061977,1
559,949,4,0.0512937418904384,1
559,950,4,0.0688784223874463,1
560,951,4,0.062653297152329,1
564,955,4,0.0421476308726115,1
559,948,5,0.0419296880954167,1
560,949,5,0.0467603190994335,1
560,950,5,0.0584912089087072,1
561,950,5,0.0416846413565731,1
561,951,5,0.0487980309450358,1
562,952,5,0.0449068633697349,1
562,953,5,0.0487535281107389,1
563,952,5,0.0437471755217304,1
563,953,5,0.0506498862812279,1
563,954,5,0.0510210694400362,1
563,955,5,0.0468000964474984,1
564,952,5,0.0446946571381833,1
564,953,5,0.0534611991514973,1
564,954,5,0.0545775439098236,1
564,955,5,0.0491984699459508,1
564,956,5,0.045408651614836,1
565,952,5,0.0417917595868113,1
565,953,5,0.0480183635639016,1
565,954,5,0.049391895884108,1
565,955,5,0.0468209880708398,1
565,956,5,0.044482691506331,1
565,957,5,0.0429669728738491,1
566,953,5,0.0418767183143929,1
566,954,5,0.0427005668291023,1
566,955,5,0.0425009528829445,1
566,956,5,0.0417794241213212,1
562,952,6,0.0434547144218899,1
562,953,6,0.0466975469081825,1
563,952,6,0.0419947446321288,1
563,953,6,0.0490387225589825,1
563,954,6,0.0580318202780584,1
564,952,6,0.0439643235089069,1
564,953,6,0.0534442868849828,1
564,954,6,0.0622947008721799,1
565,952,6,0.0418495819123353,1
565,953,6,0.048429497086289,1
565,954,6,0.0531292310403328,1
565,955,6,0.052850113762026,1
565,956,6,0.0506646899211629,1
565,957,6,0.0459187283844149,1
566,953,6,0.0423728105643619,1
566,954,6,0.0438551209823959,1
566,955,6,0.0445100955417622,1
566,956,6,0.045042842750438,1
566,957,6,0.042249610001404,1
567,963,6,0.0417393656230457,1
568,964,6,0.0421042445290548,1
575,965,6,0.0419414504470159,1
578,963,6,0.042289519814472,1
563,952,7,0.041747162134655,1
563,953,7,0.0485951594411495,1
564,952,7,0.0438399064306147,1
564,953,7,0.0520935115116305,1
565,952,7,0.0431055637074699,1
565,953,7,0.049364440484696,1
565,954,7,0.0551033002103782,1
565,957,7,0.0546325520298742,1
565,958,7,0.0442181643019339,1
565,963,7,0.044933164431263,1
566,953,7,0.044003930544825,1
566,954,7,0.0454024176495894,1
566,955,7,0.0481560190323986,1
566,956,7,0.0504752703735068,1
566,957,7,0.0467068194583974,1
566,958,7,0.0410956965461865,1
566,962,7,0.0417019645349339,1
566,963,7,0.0446025290802314,1
567,956,7,0.0416258836659254,1
567,962,7,0.0411621480204819,1
567,963,7,0.0441708824059399,1
567,964,7,0.0460725770236954,1
568,963,7,0.0431583820999187,1
568,964,7,0.0445307844125479,1
568,965,7,0.0438404687310359,1
569,963,7,0.0428582866905134,1
569,964,7,0.0437719708076113,1
569,965,7,0.0427019455464812,1
569,966,7,0.0433924531670793,1
570,962,7,0.0411529700881263,1
570,963,7,0.0425688939126827,1
570,964,7,0.0429553808343967,1
570,965,7,0.0423265883883925,1
570,966,7,0.043328775347746,1
571,942,7,0.0420946070242396,1
571,963,7,0.0414528870752826,1
571,964,7,0.0418863666326778,1
571,965,7,0.0421498070833763,1
571,966,7,0.0437650069331642,1
572,965,7,0.0417713897133799,1
572,966,7,0.0438702895769312,1
573,965,7,0.0414004985182519,1
573,966,7,0.044001970603453,1
574,965,7,0.0415413655872315,1
574,966,7,0.0441992326199644,1
575,965,7,0.0426754957997456,1
575,966,7,0.0453562116938245,1
576,964,7,0.0414037425591434,1
576,965,7,0.0441138629805365,1
577,964,7,0.042351737815404,1
578,962,7,0.0411274178593707,1
578,963,7,0.0419448458764823,1
578,964,7,0.0430398691760491,1
579,961,7,0.0413302839565222,1
579,962,7,0.0425578479534471,1
579,963,7,0.042591329158815,1
580,959,7,0.0416445909683998,1
580,960,7,0.0439759290651963,1
580,961,7,0.0441768946950589,1
563,952,8,0.0419070338765242,1
563,953,8,0.0461732179856202,1
564,952,8,0.0436939489208028,1
564,953,8,0.0483377502031418,1
565,952,8,0.0439868452627963,1
565,953,8,0.0485794474697649,1
565,954,8,0.0539083793749244,1
565,957,8,0.0608031341241353,1
565,958,8,0.0461377498052062,1
565,959,8,0.0421636645447179,1
565,963,8,0.0468915243332912,1
566,952,8,0.0416333936205893,1
566,953,8,0.0449592086728871,1
566,954,8,0.0463753055129577,1
566,955,8,0.0505936129852296,1
566,956,8,0.0536115225996757,1
566,957,8,0.0486989200890649,1
566,958,8,0.0430998650089704,1
566,959,8,0.0411015655568327,1
566,961,8,0.0414213063372036,1
566,962,8,0.0437944466042548,1
566,963,8,0.046569055855204,1
566,964,8,0.0500943659054936,1
567,948,8,0.0414222957696755,1
567,949,8,0.0410014490481854,1
567,954,8,0.041132046024376,1
567,955,8,0.0425705132297611,1
567,956,8,0.0434508026492482,1
567,957,8,0.0422873300868702,1
567,962,8,0.0430874646626626,1
567,963,8,0.046047587095361,1
567,964,8,0.0482967725599471,1
567,965,8,0.0489231698224264,1
568,948,8,0.0426902048218213,1
568,949,8,0.0415075599777744,1
568,962,8,0.0425049322397715,1
568,963,8,0.0450668378395657,1
568,964,8,0.0461546836986599,1
568,965,8,0.0454662009002516,1
568,966,8,0.0464347525622949,1
569,947,8,0.0433629864623146,1
569,948,8,0.0428221345581448,1
569,949,8,0.0410217053801856,1
569,962,8,0.0425788504148523,1
569,963,8,0.0452183399559347,1
569,964,8,0.0456587131002243,1
569,965,8,0.0446389299224017,1
569,966,8,0.0453537894766255,1
570,946,8,0.041370588461232,1
570,947,8,0.0434202654109893,1
570,948,8,0.0417139134188843,1
570,962,8,0.0422417864561206,1
570,963,8,0.0448951334585447,1
570,964,8,0.0449173308083449,1
570,965,8,0.0440676624315064,1
570,966,8,0.0448933708629936,1
570,967,8,0.0467596324441114,1
571,950,8,0.0416845872892249,1
571,963,8,0.0430798195396282,1
571,964,8,0.0434925615656243,1
571,965,8,0.0434109793439373,1
571,966,8,0.0447740442255337,1
571,967,8,0.0464566660585171,1
572,950,8,0.0414104982743,1
572,964,8,0.041964010048049,1
572,965,8,0.0427801674824781,1
572,966,8,0.0446064570730775,1
572,967,8,0.0467725004729812,1
573,964,8,0.0416640038497682,1
573,965,8,0.042996763982703,1
573,966,8,0.0451103242077165,1
573,967,8,0.0472533970947408,1
574,964,8,0.0411362794977394,1
574,965,8,0.0430920820141982,1
574,966,8,0.045503750673571,1
575,964,8,0.0410466574613762,1
575,965,8,0.0435539253024549,1
575,966,8,0.0463539380969522,1
576,964,8,0.0415697914955435,1
576,965,8,0.0442167017801653,1
576,966,8,0.0473170938376459,1
577,964,8,0.0418983641772416,1
577,965,8,0.0438466188918927,1
578,962,8,0.0413540438526852,1
578,963,8,0.0416372621393524,1
578,964,8,0.0423401241490124,1
579,960,8,0.0412392102118601,1
579,961,8,0.0422882086812783,1
579,962,8,0.0427582377660514,1
579,963,8,0.0422863541712354,1
580,958,8,0.0413754112686908,1
580,959,8,0.0440648779630745,1
580,960,8,0.0454662549675998,1
580,961,8,0.0450928847845572,1
581,958,8,0.0430564029711262,1
564,951,9,0.0411301239301478,1
565,952,9,0.0429736177509419,1
565,953,9,0.0464549250899053,1
565,954,9,0.0505488073737828,1
565,958,9,0.0472832422709428,1
565,959,9,0.0440319914985367,1
565,960,9,0.0437221315260479,1
565,962,9,0.0454194704912092,1
565,963,9,0.0476327282029216,1
566,953,9,0.0435893880761341,1
566,954,9,0.0451670949233182,1
566,955,9,0.0490108129938457,1
566,956,9,0.0519373487898473,1
566,957,9,0.0477723841633017,1
566,958,9,0.0439464569536968,1
566,959,9,0.042659605406112,1
566,960,9,0.0420808874346358,1
566,961,9,0.0425732247072729,1
566,962,9,0.0449494738468451,1
566,963,9,0.0476871578023466,1
566,964,9,0.0504979354058689,1
566,965,9,0.0524341087715665,1
567,948,9,0.0417188497677742,1
567,949,9,0.041811550939617,1
567,955,9,0.0421218001970128,1
567,956,9,0.0427434287193816,1
567,957,9,0.0425698671249502,1
567,958,9,0.0419036519638948,1
567,959,9,0.0416142375591248,1
567,960,9,0.0411162096980905,1
567,961,9,0.041480312737653,1
567,962,9,0.0437088228482904,1
567,963,9,0.046452751582508,1
567,964,9,0.0484107411232011,1
567,965,9,0.049120769759864,1
567,966,9,0.0508224314095133,1
568,948,9,0.0440135950833143,1
568,949,9,0.042902662466542,1
568,950,9,0.0410072018140331,1
568,962,9,0.0428825602264842,1
568,963,9,0.0448787699756143,1
568,964,9,0.0457370026204065,1
568,965,9,0.045829874104396,1
568,966,9,0.0474458606341001,1
569,946,9,0.0411044987104721,1
569,947,9,0.0437008046605535,1
569,948,9,0.0435390270446606,1
569,949,9,0.0417732523335251,1
569,950,9,0.0413638705932192,1
569,951,9,0.0412131416399293,1
569,962,9,0.0426821920408192,1
569,963,9,0.0448525878622523,1
569,964,9,0.0450005918211933,1
569,965,9,0.0448862826336456,1
569,966,9,0.046234470884387,1
569,967,9,0.0488343209491423,1
570,946,9,0.0450561649450325,1
570,947,9,0.0446827569148462,1
570,948,9,0.0413700396776479,1
570,949,9,0.0410198211331011,1
570,950,9,0.0429066904839824,1
570,951,9,0.0431859942946404,1
570,952,9,0.0416757013205496,1
570,962,9,0.0415937946947734,1
570,963,9,0.0452111003380118,1
570,964,9,0.0456386487073103,1
570,965,9,0.0451314483206552,1
570,966,9,0.0455976169967673,1
570,967,9,0.0470312235475499,1
571,946,9,0.0414536440181573,1
571,947,9,0.0410885948000014,1
571,949,9,0.0416176816492046,1
571,950,9,0.0446555340050315,1
571,951,9,0.0441345248176481,1
571,952,9,0.042013205928169,1
571,953,9,0.0410318430079716,1
571,954,9,0.0410992163305538,1
571,963,9,0.0427822382619138,1
571,964,9,0.0439264304079265,1
571,965,9,0.0438432640129374,1
571,966,9,0.0446625168030505,1
571,967,9,0.045843899174517,1
572,950,9,0.0431695902611989,1
572,951,9,0.0426021480351882,1
572,952,9,0.0411374635726648,1
572,964,9,0.0413927560739908,1
572,965,9,0.042285407992642,1
572,966,9,0.0437705650565583,1
572,967,9,0.0454519595607378,1
573,965,9,0.0420378498254749,1
573,966,9,0.0438697218697752,1
573,967,9,0.0455327794328153,1
574,965,9,0.0421738832735262,1
574,966,9,0.0443046693556738,1
574,967,9,0.0462872622431617,1
575,965,9,0.0428371409506355,1
575,966,9,0.0457841439412951,1
576,965,9,0.0438166547675247,1
576,966,9,0.0472821933643879,1
577,951,9,0.0410134898466278,1
577,964,9,0.0415568937296323,1
577,965,9,0.0429983805964139,1
578,951,9,0.0429492279701725,1
578,952,9,0.0414775201591189,1
578,962,9,0.0410775245104591,1
578,963,9,0.0414503756469591,1
578,964,9,0.0417643906951564,1
579,951,9,0.0428882291879422,1
579,952,9,0.0417424177248512,1
579,961,9,0.0420069719629224,1
579,962,9,0.0421979540569413,1
579,963,9,0.0414910802500455,1
580,952,9,0.041350716007404,1
580,959,9,0.0428323613970553,1
580,960,9,0.0436270784245588,1
580,961,9,0.0439274847212162,1
580,962,9,0.0430160633226401,1
581,954,9,0.0418070714598193,1
581,958,9,0.0419799815427049,1
581,959,9,0.0437178034348251,1
565,959,10,0.0455603429669237,1
565,960,10,0.0448509523249695,1
565,961,10,0.0443130957518895,1
565,962,10,0.0456136425587714,1
566,952,10,0.0411271204889557,1
566,953,10,0.0424544738870712,1
566,954,10,0.0442710935324465,1
566,955,10,0.0473942695704552,1
566,956,10,0.0497968224749229,1
566,957,10,0.0465429737664362,1
566,958,10,0.0443239416619369,1
566,959,10,0.0434414300744391,1
566,960,10,0.0424363640287943,1
566,961,10,0.0424053455911365,1
566,962,10,0.0445904909851564,1
566,963,10,0.0479167385762398,1
566,964,10,0.050372807341948,1
567,955,10,0.0419197559235538,1
567,956,10,0.0427807487064711,1
567,957,10,0.0428346376324142,1
567,958,10,0.0425234962637732,1
567,959,10,0.0422197269780583,1
567,960,10,0.0417843739870482,1
567,961,10,0.0416976661807526,1
567,962,10,0.0433192081304835,1
567,963,10,0.0464121199703417,1
567,964,10,0.0483509912967141,1
567,965,10,0.0496529492613838,1
567,966,10,0.0519187117749255,1
568,948,10,0.041864707252992,1
568,949,10,0.0417026403767863,1
568,956,10,0.0414379401568749,1
568,957,10,0.0420500852663708,1
568,958,10,0.0417846254002173,1
568,959,10,0.0418643909590051,1
568,960,10,0.0421346141585343,1
568,961,10,0.0419531587312668,1
568,962,10,0.042879681140193,1
568,963,10,0.0446944760125668,1
568,964,10,0.0456499217494083,1
568,965,10,0.0465193841824199,1
568,966,10,0.0485757871102923,1
569,951,10,0.0410044930398886,1
569,962,10,0.0425599890204355,1
569,963,10,0.0446326932537877,1
569,964,10,0.0453087243419074,1
569,965,10,0.0456505218969732,1
569,966,10,0.0473750864753167,1
570,946,10,0.0434545224828038,1
570,947,10,0.0415416494408095,1
570,950,10,0.0426972470939233,1
570,951,10,0.0435459125214528,1
570,952,10,0.0420517153969188,1
570,953,10,0.0410945340982003,1
570,954,10,0.0412623023762729,1
570,963,10,0.0446950058725791,1
570,964,10,0.0470534236007176,1
570,965,10,0.0467836059062998,1
570,966,10,0.0469660183256303,1
570,967,10,0.0475204735746052,1
571,949,10,0.0409947365869074,1
571,950,10,0.0449940172316532,1
571,951,10,0.0447968525363685,1
571,952,10,0.0421837559713061,1
571,953,10,0.0411981893147868,1
571,954,10,0.0416084469461334,1
571,963,10,0.0413349634855083,1
571,964,10,0.0445390891572302,1
571,965,10,0.0448284359778149,1
571,966,10,0.0456710783027559,1
571,967,10,0.045999110310972,1
572,950,10,0.0433236876102812,1
572,951,10,0.0429912545199222,1
572,952,10,0.041095799274148,1
572,965,10,0.0418791540484289,1
572,966,10,0.043836292028388,1
572,967,10,0.0447570427478947,1
573,966,10,0.0425096982765146,1
573,967,10,0.043450702624654,1
574,966,10,0.0425493215326372,1
575,965,10,0.0412689851005095,1
575,966,10,0.0439373060550153,1
576,965,10,0.0428977909984699,1
577,964,10,0.0412964702369629,1
578,951,10,0.0427181522341018,1
578,952,10,0.0413759681623771,1
578,963,10,0.0413648059583429,1
579,961,10,0.0414633950644037,1
579,962,10,0.0417347104243664,1
565,959,11,0.0459880967921453,1
565,960,11,0.0450737449432972,1
565,961,11,0.0446125450564839,1
565,962,11,0.0456250940231185,1
565,963,11,0.0477978985449136,1
565,964,11,0.0516867087838333,1
566,950,11,0.0421382934415788,1
566,951,11,0.0421471091227015,1
566,952,11,0.042074796747862,1
566,953,11,0.042048046927344,1
566,958,11,0.0448168574551996,1
566,959,11,0.0437515198331577,1
566,960,11,0.0429711360596599,1
566,961,11,0.0432502073807207,1
566,962,11,0.0451371686460939,1
566,963,11,0.0477603325513897,1
566,964,11,0.0503973160708834,1
566,965,11,0.0541236593352208,1
566,966,11,0.0589759334987189,1
567,950,11,0.0418665671697698,1
567,951,11,0.0422489287528168,1
567,952,11,0.041385543489742,1
567,955,11,0.0420640995230222,1
567,956,11,0.04328252884147,1
567,957,11,0.0434582369096246,1
567,958,11,0.0427700136344876,1
567,959,11,0.0421085212562968,1
567,960,11,0.042046416796796,1
567,961,11,0.0421799928838719,1
567,962,11,0.0436143888179381,1
567,963,11,0.0459887834474673,1
567,964,11,0.0484284319595296,1
567,965,11,0.0503533809437425,1
567,966,11,0.0535314812974122,1
567,967,11,0.0583620420138764,1
568,956,11,0.0422271098744539,1
568,957,11,0.0430600822541707,1
568,958,11,0.0425109769692993,1
568,959,11,0.0422759759437499,1
568,960,11,0.0427371569069913,1
568,961,11,0.0423159181972268,1
568,962,11,0.042730390378365,1
568,963,11,0.0437750959003368,1
568,964,11,0.0456801724307218,1
568,965,11,0.047118515281206,1
568,966,11,0.0500980695188447,1
568,967,11,0.0540010724366649,1
569,953,11,0.0410401910065325,1
569,954,11,0.0411890816699838,1
569,962,11,0.0412634215703805,1
569,963,11,0.0428245594787112,1
569,964,11,0.0452022143693364,1
569,965,11,0.0462947343506819,1
569,966,11,0.0491160388668972,1
569,967,11,0.0516845677168449,1
570,950,11,0.0413273075490043,1
570,951,11,0.0433114197289764,1
570,952,11,0.0431127925119231,1
570,953,11,0.0428490492840748,1
570,954,11,0.0425698103542346,1
570,963,11,0.0410462573629996,1
570,964,11,0.0453823856970843,1
570,965,11,0.0465674446482279,1
570,966,11,0.0477091199591822,1
570,967,11,0.0484311082932651,1
571,950,11,0.0441974538042089,1
571,951,11,0.0454352581568813,1
571,952,11,0.0436575886291436,1
571,953,11,0.0425528034698607,1
571,954,11,0.042130196856187,1
571,964,11,0.0427164004520203,1
571,965,11,0.0449389280105802,1
571,966,11,0.0460913383935181,1
571,967,11,0.0464411271026467,1
572,950,11,0.0430735206935638,1
572,951,11,0.043611431333992,1
572,952,11,0.0419897325889514,1
572,965,11,0.0416318175573895,1
572,966,11,0.0435780852969945,1
572,967,11,0.0443526297968876,1
573,966,11,0.0417941899141125,1
573,967,11,0.0422592204725452,1
574,966,11,0.0410748346598865,1
574,967,11,0.0419180203616768,1
575,966,11,0.0421638835174781,1
576,965,11,0.0425779420834026,1
576,966,11,0.0443382019250225,1
577,964,11,0.0413744083193818,1
577,965,11,0.0420429862235532,1
578,945,11,0.0428263031506904,1
578,946,11,0.0414011473264302,1
578,962,11,0.041013200586315,1
579,946,11,0.0510625174691602,1
579,947,11,0.0426548312592666,1
579,961,11,0.0422393047648386,1
579,962,11,0.0419706792554485,1
580,947,11,0.0575666140007441,1
580,955,11,0.041011240644943,1
580,960,11,0.0410034170996596,1
580,961,11,0.0420712553365554,1
564,962,12,0.0449346783170123,1
564,963,12,0.0462101189507613,1
565,959,12,0.0456060190626763,1
565,960,12,0.0446561476694334,1
565,961,12,0.0445502108107533,1
565,962,12,0.0458812651188526,1
565,963,12,0.0470744990530428,1
565,964,12,0.0511829470805232,1
565,965,12,0.0567986900476372,1
566,950,12,0.0465196923663046,1
566,951,12,0.0453821423940174,1
566,952,12,0.0438727415311717,1
566,957,12,0.0464248366106365,1
566,958,12,0.0447431798798182,1
566,959,12,0.0433395969274867,1
566,960,12,0.0434150614287258,1
566,961,12,0.0441529563766468,1
566,962,12,0.0457973525944585,1
566,963,12,0.0469530908226775,1
566,964,12,0.0499161112652391,1
566,965,12,0.053523830767643,1
566,966,12,0.0607943427733193,1
567,949,12,0.0413659467793897,1
567,950,12,0.04401507112192,1
567,951,12,0.0441703903930714,1
567,952,12,0.0430161282034579,1
567,953,12,0.0411671573602919,1
567,954,12,0.0414333282120741,1
567,955,12,0.0426594675343741,1
567,956,12,0.0436964468322892,1
567,957,12,0.043296434963425,1
567,958,12,0.042131616124077,1
567,959,12,0.0414718890448047,1
567,960,12,0.0421267230290657,1
567,961,12,0.042483532383357,1
567,962,12,0.0436650850669704,1
567,963,12,0.0452272935087953,1
567,964,12,0.0484782766478279,1
567,965,12,0.05082207997175,1
567,966,12,0.0559477510881162,1
567,967,12,0.0630728651810343,1
568,955,12,0.0412823127018388,1
568,956,12,0.0420428753854894,1
568,957,12,0.0420437485731627,1
568,958,12,0.0411481283570957,1
568,960,12,0.0415807860907984,1
568,961,12,0.0412121440973551,1
568,962,12,0.041663171212606,1
568,963,12,0.0428173063439512,1
568,964,12,0.0459939036253411,1
568,965,12,0.0481598145602417,1
568,966,12,0.0520030568381051,1
568,967,12,0.0558515760891521,1
569,952,12,0.0416023859964011,1
569,953,12,0.0425690290810532,1
569,954,12,0.042728581825568,1
569,964,12,0.0450141627255895,1
569,965,12,0.0477176626001965,1
569,966,12,0.0512938013645215,1
569,967,12,0.0529616492946114,1
570,951,12,0.0430035494349011,1
570,952,12,0.0440334567236727,1
570,953,12,0.0446049675176348,1
570,954,12,0.0438574107345919,1
570,964,12,0.0435790179587509,1
570,965,12,0.0470423506078078,1
570,966,12,0.0491267225748999,1
570,967,12,0.049793648721584,1
571,950,12,0.0436833355003527,1
571,951,12,0.0456645145266854,1
571,952,12,0.0446389164055646,1
571,953,12,0.0434521813666271,1
571,954,12,0.0423776522953925,1
571,965,12,0.0451342246789849,1
571,966,12,0.0470515366502657,1
571,967,12,0.0472710987445389,1
572,950,12,0.0432089512906828,1
572,951,12,0.0440646779138862,1
572,952,12,0.0424667012178649,1
572,953,12,0.0411653704344342,1
572,965,12,0.0412771411599842,1
572,966,12,0.0439511635163569,1
572,967,12,0.044111054181798,1
573,966,12,0.0421388205982236,1
573,967,12,0.0415425307385851,1
574,966,12,0.0410431376770089,1
575,965,12,0.041351494577218,1
575,966,12,0.0422583499882393,1
576,964,12,0.042582043091763,1
576,965,12,0.0435804831838869,1
577,963,12,0.041549216166189,1
577,964,12,0.0430825796777534,1
577,965,12,0.0428751394829449,1
578,944,12,0.0419856478007955,1
578,945,12,0.0431576035301047,1
578,946,12,0.0410431809308875,1
578,961,12,0.0416516089101952,1
578,962,12,0.0423207220811137,1
578,963,12,0.0415813375777499,1
578,964,12,0.0418038706728063,1
579,945,12,0.0509891210439895,1
579,946,12,0.0503077643220729,1
579,947,12,0.0416658151059326,1
579,955,12,0.0411242495127667,1
579,960,12,0.0414938998622537,1
579,961,12,0.042967289167836,1
579,962,12,0.0421995544504478,1
580,946,12,0.0753485267772219,1
580,947,12,0.0597532597636764,1
580,948,12,0.0420610609380538,1
581,948,12,0.0511996863315235,1
564,961,13,0.0445337040493503,1
564,962,13,0.0450419344189884,1
564,963,13,0.045468163544991,1
564,964,13,0.0500135838805598,1
565,959,13,0.04480323789019,1
565,960,13,0.0445077192818091,1
565,961,13,0.0447657529976884,1
565,962,13,0.0458594381303874,1
565,963,13,0.046303374312923,1
565,964,13,0.0509289819325954,1
565,965,13,0.0556901904615336,1
566,950,13,0.0496009689128319,1
566,951,13,0.0468273085438435,1
566,952,13,0.0440911546942959,1
566,953,13,0.0426957710553176,1
566,955,13,0.0454303975022788,1
566,956,13,0.0469547236565929,1
566,957,13,0.0458189416865916,1
566,958,13,0.0436014964587617,1
566,959,13,0.0423008523306531,1
566,960,13,0.0430674218966878,1
566,961,13,0.0439975505977383,1
566,962,13,0.0448507279454745,1
566,963,13,0.0454529273662705,1
566,964,13,0.0494943426954623,1
566,965,13,0.0533377633955748,1
566,966,13,0.0620432444492081,1
567,949,13,0.0434425303449748,1
567,950,13,0.0456112365617769,1
567,951,13,0.0446589078075586,1
567,952,13,0.0427668723215576,1
567,955,13,0.0427896941492295,1
567,956,13,0.044061290594522,1
567,957,13,0.0434789284837777,1
567,958,13,0.0415783990173757,1
567,960,13,0.0410207294645507,1
567,961,13,0.0416216258622553,1
567,962,13,0.0423418759310938,1
567,963,13,0.0439026651050286,1
567,964,13,0.04800226230761,1
567,965,13,0.0513303941457779,1
567,966,13,0.057724312235216,1
567,967,13,0.0687750996850512,1
568,955,13,0.0417643447379105,1
568,956,13,0.042015298334544,1
568,957,13,0.0410605176260853,1
568,963,13,0.0411512994070672,1
568,964,13,0.0454623458983255,1
568,965,13,0.0492582305859075,1
568,966,13,0.0528740710040099,1
568,967,13,0.0573024625644169,1
569,952,13,0.0419196613056945,1
569,953,13,0.043176870429633,1
569,954,13,0.0432529269683348,1
569,955,13,0.041327166973899,1
569,964,13,0.0431324811367673,1
569,965,13,0.0485349230085287,1
569,966,13,0.0521654859655438,1
569,967,13,0.0536929642462575,1
570,951,13,0.0424417464333068,1
570,952,13,0.0444176106393122,1
570,953,13,0.0453566766730189,1
570,954,13,0.0442614668411009,1
570,965,13,0.0459307421491831,1
570,966,13,0.0487826704114145,1
570,967,13,0.0493583254676155,1
571,950,13,0.0425426901723814,1
571,951,13,0.0448935925391212,1
571,952,13,0.0450273335316091,1
571,953,13,0.0441724909095486,1
571,954,13,0.0426170057424714,1
571,965,13,0.04356745565634,1
571,966,13,0.046065802384967,1
571,967,13,0.0454550143659107,1
572,950,13,0.0428983100450126,1
572,951,13,0.0441654756711207,1
572,952,13,0.0433589314112002,1
572,953,13,0.0422524755708582,1
572,954,13,0.0410786382978319,1
572,966,13,0.0430497256536245,1
572,967,13,0.0414294569899436,1
573,966,13,0.0413758978748245,1
575,964,13,0.0411028145125759,1
575,965,13,0.0429471247503278,1
575,966,13,0.0419072393324473,1
576,963,13,0.0424118066392454,1
576,964,13,0.0444153235904837,1
576,965,13,0.0445913506559927,1
577,961,13,0.0418862395744095,1
577,962,13,0.0428365002525594,1
577,963,13,0.0429361680022167,1
577,964,13,0.0433301135146138,1
578,944,13,0.0409929091105385,1
578,945,13,0.0415302385269736,1
578,954,13,0.0411451357293733,1
578,960,13,0.0415599971954185,1
578,961,13,0.0436211526431969,1
578,962,13,0.0434881875171556,1
578,963,13,0.0418176037792471,1
579,945,13,0.0467495056297951,1
579,946,13,0.0463226655427579,1
579,953,13,0.0424387538055844,1
579,954,13,0.0447913971409359,1
579,955,13,0.0433301594718598,1
579,960,13,0.0422418756672451,1
579,961,13,0.0432379746431923,1
579,962,13,0.0422272153057829,1
580,946,13,0.066980847701623,1
580,947,13,0.0571639420183488,1
580,948,13,0.0432714855856017,1
580,954,13,0.0426075628801097,1
580,955,13,0.0417907296038282,1
581,948,13,0.0542788975053499,1
564,961,14,0.0442409996464428,1
564,962,14,0.0449959014787376,1
564,963,14,0.045231548609098,1
564,964,14,0.0489535178249666,1
565,950,14,0.051473997022576,1
565,959,14,0.0436646768584916,1
565,960,14,0.0439858693471614,1
565,961,14,0.0448853256415826,1
565,962,14,0.0458633309794573,1
565,963,14,0.0463583770262388,1
565,964,14,0.0505861084373005,1
565,965,14,0.0543211457312271,1
566,949,14,0.0495030421317864,1
566,950,14,0.0506818725244183,1
566,951,14,0.0467419794549267,1
566,952,14,0.0442954670930115,1
566,953,14,0.0428544181717503,1
566,954,14,0.042792865199201,1
566,955,14,0.0443458227177502,1
566,956,14,0.0461526129192242,1
566,957,14,0.0448771695821078,1
566,958,14,0.0424151290777918,1
566,959,14,0.0411639511665441,1
566,960,14,0.0424567257921234,1
566,961,14,0.0437943709099673,1
566,962,14,0.0441637806597549,1
566,963,14,0.0449454566428744,1
566,964,14,0.0493139415814846,1
566,965,14,0.0537098873262416,1
566,966,14,0.0628368774263804,1
567,949,14,0.0449334455814736,1
567,950,14,0.0461552514058159,1
567,951,14,0.0438773075187266,1
567,952,14,0.0423171860765419,1
567,954,14,0.0410488498923454,1
567,955,14,0.043395916180731,1
567,956,14,0.0452443544605173,1
567,957,14,0.043958727538369,1
567,958,14,0.0412535867197444,1
567,961,14,0.0410357088233673,1
567,962,14,0.0416481810403198,1
567,963,14,0.0433863814038773,1
567,964,14,0.0476927267392103,1
567,965,14,0.0524388991386163,1
567,966,14,0.0590828192393598,1
567,967,14,0.0712254535320555,1
568,954,14,0.042019245250962,1
568,955,14,0.0430073071156004,1
568,956,14,0.0429157467648045,1
568,964,14,0.0451914036030654,1
568,965,14,0.0509780642712842,1
568,966,14,0.0544238520658528,1
568,967,14,0.0583001132732572,1
569,952,14,0.0427824734548785,1
569,953,14,0.0438402389448061,1
569,954,14,0.043878491593652,1
569,955,14,0.0414977900079561,1
569,964,14,0.0421586416880708,1
569,965,14,0.0502715824526627,1
569,966,14,0.0542230134942585,1
569,967,14,0.0549067924333741,1
569,968,14,0.0509993992468808,1
570,950,14,0.0410395800454979,1
570,951,14,0.0431303616967182,1
570,952,14,0.0453109951705314,1
570,953,14,0.0456436877841618,1
570,954,14,0.0441692955292705,1
570,965,14,0.0469811301494499,1
570,966,14,0.0515053236441185,1
570,967,14,0.050280606293076,1
571,950,14,0.0437104610889406,1
571,951,14,0.0454830969465616,1
571,952,14,0.0457429446219728,1
571,953,14,0.0444068025764086,1
571,954,14,0.0424182730940892,1
571,965,14,0.0446724084244022,1
571,966,14,0.049199151194538,1
571,967,14,0.0456912724573056,1
572,949,14,0.0417895644524747,1
572,950,14,0.0446300493604611,1
572,951,14,0.0454312625798499,1
572,952,14,0.0444161535242784,1
572,953,14,0.0425574748887445,1
572,965,14,0.0424377076023969,1
572,966,14,0.0452373284086197,1
573,949,14,0.0412158909645848,1
573,950,14,0.042493372640728,1
573,951,14,0.0419018217841585,1
573,965,14,0.0418026974113505,1
573,966,14,0.0421111543361537,1
574,965,14,0.0425811536838853,1
575,963,14,0.0411549002924568,1
575,964,14,0.0447199498436675,1
575,965,14,0.0455853004548491,1
576,962,14,0.0431495285716523,1
576,963,14,0.0464387913932048,1
576,964,14,0.0484622564925586,1
576,965,14,0.0480085557469396,1
577,961,14,0.0436319336724264,1
577,962,14,0.0458605627312298,1
577,963,14,0.0461336947540918,1
577,964,14,0.0463595989483079,1
578,960,14,0.0415426280598118,1
578,961,14,0.0444027745589683,1
578,962,14,0.0452165854704858,1
578,963,14,0.0437464375024276,1
579,953,14,0.0417937600786944,1
579,954,14,0.0440686140168346,1
579,955,14,0.0414419438440085,1
579,961,14,0.0420929363431804,1
580,947,14,0.0490830307508259,1
580,948,14,0.0418363678524371,1
580,954,14,0.0425966872330208,1
581,948,14,0.0514621022059738,1
581,949,14,0.0437316987433105,1
563,962,15,0.042184969783273,1
564,960,15,0.0437097879504556,1
564,961,15,0.0438582947357348,1
564,962,15,0.0435568287190528,1
564,963,15,0.044527610659209,1
564,964,15,0.0478910025185003,1
565,949,15,0.0486684098844801,1
565,950,15,0.0488152027348216,1
565,955,15,0.0450161551073704,1
565,958,15,0.0439962556847491,1
565,959,15,0.0426509221899923,1
565,960,15,0.0430412560035302,1
565,961,15,0.044299760040458,1
565,962,15,0.0442110922927903,1
565,963,15,0.0454898283314116,1
565,964,15,0.0496046833396527,1
565,965,15,0.053347387383553,1
566,949,15,0.0494721372355598,1
566,950,15,0.0491989078914712,1
566,951,15,0.0450993593495032,1
566,952,15,0.0439235080677567,1
566,953,15,0.0430107593157825,1
566,954,15,0.0422954510025687,1
566,955,15,0.043100640875417,1
566,956,15,0.045037819893791,1
566,957,15,0.0439169767320951,1
566,958,15,0.0415465911964343,1
566,960,15,0.0421009518275499,1
566,961,15,0.0434994821861929,1
566,962,15,0.0431258714034508,1
566,963,15,0.0443624835710956,1
566,964,15,0.0488459994963518,1
566,965,15,0.0535625051418048,1
566,966,15,0.0632581810169627,1
567,949,15,0.044588455349497,1
567,950,15,0.0446580129929461,1
567,951,15,0.0421645458424934,1
567,952,15,0.0413237499174932,1
567,955,15,0.0430884567985019,1
567,956,15,0.0450263576159742,1
567,957,15,0.0433172941463575,1
567,963,15,0.0427356619448138,1
567,964,15,0.0475426952547121,1
567,965,15,0.052979664535029,1
567,966,15,0.0605402208300817,1
567,967,15,0.0732845706408071,1
568,953,15,0.0412117304821415,1
568,954,15,0.0421091916914144,1
568,955,15,0.0428672618703133,1
568,956,15,0.0422780548332879,1
568,964,15,0.0453031689218806,1
568,965,15,0.0524714909361065,1
568,966,15,0.0583852855668641,1
568,967,15,0.0620100579108878,1
568,968,15,0.0639594994038318,1
569,952,15,0.0432654895166872,1
569,953,15,0.0440246788896937,1
569,954,15,0.0432192457137785,1
569,964,15,0.0422834858984138,1
569,965,15,0.0521621175697514,1
569,966,15,0.0587445090282523,1
569,967,15,0.0576908121062762,1
569,968,15,0.0524937450566224,1
570,951,15,0.0433684175274405,1
570,952,15,0.0452824557207883,1
570,953,15,0.0450613067498456,1
570,954,15,0.0428306231318109,1
570,965,15,0.0491000295250975,1
570,966,15,0.0561587002538224,1
570,967,15,0.0516039587074253,1
571,950,15,0.0436245129288871,1
571,951,15,0.0448085148633735,1
571,952,15,0.0451775704720304,1
571,953,15,0.0438730497150564,1
571,954,15,0.0412190295741474,1
571,965,15,0.0473555951962935,1
571,966,15,0.0527355828983507,1
571,967,15,0.0452246793525102,1
572,949,15,0.0419716389508789,1
572,950,15,0.0442404076089801,1
572,951,15,0.044428756623142,1
572,952,15,0.0437690809078505,1
572,953,15,0.0419702764537045,1
572,965,15,0.0451456355928208,1
572,966,15,0.0462765623149545,1
573,950,15,0.0415418765236719,1
573,965,15,0.0452228275458346,1
573,966,15,0.0419947284119243,1
574,964,15,0.0448667021434979,1
574,965,15,0.0456859522302435,1
575,962,15,0.042152148199553,1
575,963,15,0.0457188900587621,1
575,964,15,0.0492908926709504,1
575,965,15,0.0476981010336206,1
576,961,15,0.0445713051866504,1
576,962,15,0.0489932573258878,1
576,963,15,0.0505216601582556,1
576,964,15,0.0518963981803266,1
577,960,15,0.0421037795498603,1
577,961,15,0.0475082651673834,1
577,962,15,0.0505502996325929,1
577,963,15,0.0495285511066635,1
578,960,15,0.0420751292620534,1
578,961,15,0.0456017964027825,1
578,962,15,0.0471677922623483,1
579,953,15,0.0419633720533403,1
579,954,15,0.0431918443817148,1
579,961,15,0.0413435466770338,1
580,953,15,0.0422650327124758,1
580,954,15,0.0427096555503334,1
581,949,15,0.0452509885241405,1
581,950,15,0.04200218429924,1
563,961,16,0.0431495150548152,1
563,962,16,0.0415494837995626,1
564,959,16,0.0454468880434774,1
564,960,16,0.0446467237306436,1
564,961,16,0.0442321785585853,1
564,962,16,0.0428727172657459,1
564,963,16,0.0433066969461118,1
564,964,16,0.0461757375240459,1
565,949,16,0.0440941500253857,1
565,950,16,0.0448892049738154,1
565,951,16,0.0435511597575949,1
565,952,16,0.0460431049121959,1
565,953,16,0.0476184382027944,1
565,954,16,0.0471377902908365,1
565,955,16,0.0452215245227432,1
565,956,16,0.0457546934567349,1
565,957,16,0.045587398267959,1
565,958,16,0.0440150954522267,1
565,959,16,0.0430041603959356,1
565,960,16,0.0432881518456819,1
565,961,16,0.0438335778475088,1
565,962,16,0.0429705602424017,1
565,963,16,0.0438860096584181,1
565,964,16,0.0474185566232631,1
565,965,16,0.0499016320293933,1
566,949,16,0.0473290643485356,1
566,950,16,0.0468517415784915,1
566,951,16,0.0442317865703109,1
566,952,16,0.0440745533150335,1
566,953,16,0.0437587702645502,1
566,954,16,0.0424462664636157,1
566,955,16,0.0425312900720151,1
566,956,16,0.0445127745788651,1
566,957,16,0.0439376088321652,1
566,958,16,0.0418782376068771,1
566,960,16,0.041906649998352,1
566,961,16,0.0428025594747318,1
566,962,16,0.042479796329597,1
566,963,16,0.0432701501221014,1
566,964,16,0.0469508794681365,1
566,965,16,0.0503812364415311,1
566,966,16,0.0601854471114498,1
567,949,16,0.0432557817243193,1
567,950,16,0.0432589933248019,1
567,951,16,0.0414398973948795,1
567,953,16,0.0411217867450565,1
567,954,16,0.0415224690490384,1
567,955,16,0.0434034477623341,1
567,956,16,0.044968632611677,1
567,957,16,0.0428275737333729,1
567,963,16,0.0415324039242687,1
567,964,16,0.0459874696109063,1
567,965,16,0.051048259909442,1
567,966,16,0.0592070768189748,1
568,953,16,0.042164662087292,1
568,954,16,0.0429799733677219,1
568,955,16,0.0429726202083678,1
568,956,16,0.0415018558725402,1
568,964,16,0.0441393476251069,1
568,965,16,0.0519482217335687,1
568,966,16,0.0608583260731698,1
568,967,16,0.0645147386293555,1
569,951,16,0.0420788869427527,1
569,952,16,0.0437875854577692,1
569,953,16,0.0443927396591439,1
569,954,16,0.0429477059743209,1
569,964,16,0.041786682662816,1
569,965,16,0.052013827053865,1
569,966,16,0.0612885507762038,1
569,967,16,0.0593699871458124,1
570,950,16,0.0416208040385627,1
570,951,16,0.0442868514610771,1
570,952,16,0.0453374881711456,1
570,953,16,0.044495224317642,1
570,954,16,0.0416695376428557,1
570,965,16,0.0502635426379866,1
570,966,16,0.0583820144922985,1
570,967,16,0.0511770537395703,1
571,949,16,0.0414989767862489,1
571,950,16,0.0437450723018858,1
571,951,16,0.0444754978456541,1
571,952,16,0.0444725890223213,1
571,953,16,0.0428909568856585,1
571,965,16,0.0490632258811832,1
571,966,16,0.0535679767574418,1
572,949,16,0.0421298859689349,1
572,950,16,0.0435554418915717,1
572,951,16,0.0435392622376252,1
572,952,16,0.0428861259680975,1
572,964,16,0.0421622614970323,1
572,965,16,0.0476407788310674,1
572,966,16,0.0460180446963089,1
573,964,16,0.0472336300722418,1
573,965,16,0.0491476196049762,1
573,966,16,0.0423045910877805,1
574,963,16,0.0454222982135197,1
574,964,16,0.0523225678322462,1
574,965,16,0.0497194737265993,1
575,960,16,0.0417426366976114,1
575,961,16,0.0477572398990731,1
575,962,16,0.0494486720064445,1
575,963,16,0.0517678098061214,1
575,964,16,0.0544686036099514,1
576,960,16,0.0467702188308875,1
576,961,16,0.0563362412050807,1
576,962,16,0.0582356217403336,1
576,963,16,0.0554986893209721,1
576,964,16,0.0549720679428464,1
577,960,16,0.0467108636960422,1
577,961,16,0.0555597475772854,1
577,962,16,0.0575434515487786,1
577,963,16,0.0537417816549401,1
578,960,16,0.0429786433109564,1
578,961,16,0.0482582495743602,1
578,962,16,0.0505187729618621,1
581,950,16,0.0437121506935716,1
563,960,17,0.0428998915149472,1
563,961,17,0.0411569521483207,1
564,959,17,0.0435798181555041,1
564,960,17,0.0432097541908034,1
564,961,17,0.0421239845178797,1
564,964,17,0.0449358948323467,1
564,965,17,0.0486410572130298,1
565,951,17,0.0425594970075669,1
565,952,17,0.046754501452768,1
565,953,17,0.0486567475574751,1
565,954,17,0.0481449947001023,1
565,955,17,0.0463844915554155,1
565,956,17,0.0462924418951185,1
565,957,17,0.0457217772551556,1
565,958,17,0.0434033909916185,1
565,959,17,0.0417750284459132,1
565,960,17,0.041719006563084,1
565,961,17,0.0414490537002958,1
565,962,17,0.0411597744638963,1
565,963,17,0.0419127542019629,1
565,964,17,0.0464042315442405,1
565,965,17,0.0497500650322064,1
565,966,17,0.0586966432048979,1
566,949,17,0.0424333686977044,1
566,950,17,0.0429356002950607,1
566,951,17,0.0425381512185007,1
566,952,17,0.0439667889799844,1
566,953,17,0.0443011576814087,1
566,954,17,0.0432780520650396,1
566,955,17,0.0432081024333161,1
566,956,17,0.0446938461279604,1
566,957,17,0.0443785632004479,1
566,958,17,0.0418884184885417,1
566,962,17,0.0415929890912853,1
566,963,17,0.0423055967404569,1
566,964,17,0.046193049888937,1
566,965,17,0.0497737249037753,1
566,966,17,0.0588417167135668,1
567,950,17,0.0411742023357613,1
567,952,17,0.0410096780985803,1
567,953,17,0.0422561116000241,1
567,954,17,0.0429599522286864,1
567,955,17,0.0438243945084184,1
567,956,17,0.0443488558959838,1
567,957,17,0.0422297726913523,1
567,964,17,0.0439990563733855,1
567,965,17,0.0495108170164565,1
567,966,17,0.057679452556421,1
568,952,17,0.041253043342895,1
568,953,17,0.0433985844043642,1
568,954,17,0.0438673537199244,1
568,955,17,0.0423245365325286,1
568,964,17,0.0419607470835856,1
568,965,17,0.0504350875203304,1
568,966,17,0.0601849983524598,1
569,951,17,0.041648802814824,1
569,952,17,0.0431860808023975,1
569,953,17,0.0438604493195603,1
569,954,17,0.0421060828188933,1
569,964,17,0.0416413036736298,1
569,965,17,0.051872911324272,1
569,966,17,0.0598060943763297,1
569,967,17,0.0575115680335498,1
570,950,17,0.0413772522618967,1
570,951,17,0.0434884227101202,1
570,952,17,0.044101484261168,1
570,953,17,0.0432250255133003,1
570,964,17,0.0430557109090694,1
570,965,17,0.0528595701412248,1
570,966,17,0.0570860525965433,1
570,967,17,0.0477324608333967,1
571,949,17,0.0412604667898018,1
571,950,17,0.0429899704204026,1
571,951,17,0.0432903361665489,1
571,952,17,0.0430558487808073,1
571,953,17,0.0411986867343901,1
571,964,17,0.0443118386860441,1
571,965,17,0.0513840776157978,1
571,966,17,0.0514149392581458,1
572,949,17,0.0413569499726506,1
572,950,17,0.042204736805772,1
572,951,17,0.0420313617436919,1
572,952,17,0.0414083680207812,1
572,964,17,0.0476417628568045,1
572,965,17,0.0491492308119523,1
572,966,17,0.0432055099039703,1
573,963,17,0.0488225288605017,1
573,964,17,0.0567378859078604,1
573,965,17,0.0510581055735477,1
574,962,17,0.0450648130173759,1
574,963,17,0.0569610164471143,1
574,964,17,0.0616850861145794,1
574,965,17,0.0504800553338218,1
575,960,17,0.0446379783370735,1
575,961,17,0.0544516751232325,1
575,962,17,0.0567580692489405,1
575,963,17,0.0598666876534485,1
575,964,17,0.0591395467010829,1
576,960,17,0.0516625406791914,1
576,961,17,0.0653427746601824,1
576,962,17,0.064129060014497,1
576,963,17,0.0587323871287876,1
577,960,17,0.0493419160274392,1
577,961,17,0.0606775681146941,1
577,962,17,0.0598121120721835,1
578,960,17,0.0426801726253642,1
578,961,17,0.0489679429934643,1
563,960,18,0.0428996076613692,1
564,951,18,0.042355208939158,1
564,958,18,0.0446876473064901,1
564,959,18,0.0430127544009308,1
564,960,18,0.0428816167512583,1
564,964,18,0.0443446359394574,1
564,965,18,0.0484893766744117,1
565,951,18,0.0431153417873904,1
565,952,18,0.0465961598168527,1
565,953,18,0.0474757382507111,1
565,954,18,0.0470568839110019,1
565,955,18,0.0468442045901535,1
565,956,18,0.0469319126423907,1
565,957,18,0.0459170468898861,1
565,958,18,0.0436541175053897,1
565,959,18,0.0419612363930867,1
565,960,18,0.0416339342940712,1
565,964,18,0.0457258539332093,1
565,965,18,0.0498903535805604,1
565,966,18,0.0600110853202651,1
566,951,18,0.0417196824049364,1
566,952,18,0.0436057812961059,1
566,953,18,0.0438920624980482,1
566,954,18,0.0434301083717276,1
566,955,18,0.0437660720599236,1
566,956,18,0.0451064800192601,1
566,957,18,0.0450617933559793,1
566,958,18,0.0429280957471316,1
566,963,18,0.041428951460238,1
566,964,18,0.0458303985576735,1
566,965,18,0.0501610796064278,1
566,966,18,0.0595789682600444,1
567,952,18,0.0418022459489931,1
567,953,18,0.0435922860859972,1
567,954,18,0.0443608237035061,1
567,955,18,0.0438300634698763,1
567,956,18,0.0434999390552851,1
567,957,18,0.0421939017091943,1
567,964,18,0.0427753257514475,1
567,965,18,0.0493873542268598,1
567,966,18,0.0581921299654479,1
568,952,18,0.0426624520519943,1
568,953,18,0.0448041191879655,1
568,954,18,0.0443871869424845,1
568,955,18,0.0411375473770545,1
568,965,18,0.0505882440975541,1
568,966,18,0.060059059278316,1
569,951,18,0.0417152651025891,1
569,952,18,0.0435314981664248,1
569,953,18,0.0436765878952983,1
569,954,18,0.0410502907871747,1
569,964,18,0.0424495375381813,1
569,965,18,0.0536507268338498,1
569,966,18,0.0580784317389348,1
570,951,18,0.0428238728233891,1
570,952,18,0.0433314462747467,1
570,953,18,0.0420675814602458,1
570,964,18,0.0459598249757757,1
570,965,18,0.055846526198831,1
570,966,18,0.0537146452528825,1
571,950,18,0.0416273137472851,1
571,951,18,0.0423311489692125,1
571,952,18,0.0419933875416892,1
571,964,18,0.04608051411041,1
571,965,18,0.051593112797378,1
571,966,18,0.046245387081987,1
572,963,18,0.0442470903332166,1
572,964,18,0.0501509149449677,1
572,965,18,0.0468227236327168,1
573,962,18,0.0439981020846899,1
573,963,18,0.0580062085752198,1
573,964,18,0.0624169849935859,1
573,965,18,0.0487883042290961,1
574,961,18,0.0416316256183034,1
574,962,18,0.0516520678338466,1
574,963,18,0.0654422964279995,1
574,964,18,0.0662423309791977,1
575,960,18,0.0456971009174407,1
575,961,18,0.0586726102686265,1
575,962,18,0.0603582031023931,1
575,963,18,0.0630347585140286,1
575,964,18,0.0593937281184035,1
576,960,18,0.0536816263233416,1
576,961,18,0.0699049883140996,1
576,962,18,0.0649236229500581,1
576,963,18,0.0573496957997975,1
577,960,18,0.0485161778589105,1
577,961,18,0.0605435892258741,1
577,962,18,0.0570657124601534,1
578,961,18,0.0467392598673127,1
563,959,19,0.0459730120019997,1
563,960,19,0.0444209249677564,1
564,951,19,0.0415328905304024,1
564,955,19,0.0505513593526175,1
564,956,19,0.0498230126983872,1
564,957,19,0.0473386072354915,1
564,958,19,0.0452593987001517,1
564,959,19,0.0443219438734212,1
564,960,19,0.0442715044442928,1
564,961,19,0.0415089468052556,1
564,964,19,0.0438002588441854,1
565,951,19,0.0433273452663864,1
565,952,19,0.0451603608351009,1
565,953,19,0.0453430625147442,1
565,954,19,0.0461521587534993,1
565,955,19,0.047048806249182,1
565,956,19,0.0468278221836513,1
565,957,19,0.0455837270950167,1
565,958,19,0.0448563915001976,1
565,959,19,0.0439707413031373,1
565,960,19,0.0432521970591342,1
565,964,19,0.0458947927693702,1
565,965,19,0.0502743507008902,1
566,951,19,0.0426287599839684,1
566,952,19,0.0436830327232028,1
566,953,19,0.0436674991740672,1
566,954,19,0.0440002701853524,1
566,955,19,0.0446126694113848,1
566,956,19,0.0454745218651384,1
566,957,19,0.0456155132890189,1
566,958,19,0.0449762912515484,1
566,959,19,0.0435184949691846,1
566,960,19,0.0415819863859282,1
566,962,19,0.0410783382240494,1
566,963,19,0.042604997384438,1
566,964,19,0.0476805237387234,1
566,965,19,0.0520697326918956,1
566,966,19,0.0599001715621839,1
567,951,19,0.0424508567814772,1
567,952,19,0.0443696880452422,1
567,953,19,0.0457104988063227,1
567,954,19,0.045444865924655,1
567,955,19,0.0438176279797921,1
567,956,19,0.0431206295740436,1
567,957,19,0.0427049814280822,1
567,958,19,0.0419092614512697,1
567,964,19,0.0452518806353856,1
567,965,19,0.0521182905773069,1
567,966,19,0.0599595212902943,1
568,951,19,0.0425734815271768,1
568,952,19,0.0453427813645336,1
568,953,19,0.0466233448795237,1
568,954,19,0.0442869650025083,1
568,964,19,0.0432806905516314,1
568,965,19,0.0532821821616333,1
568,966,19,0.0606244090979516,1
569,951,19,0.0423062671755745,1
569,952,19,0.0443207868321698,1
569,953,19,0.0438667643858291,1
569,964,19,0.0448852445405603,1
569,965,19,0.0559077574706585,1
569,966,19,0.0568694696131555,1
570,951,19,0.0419796679520854,1
570,952,19,0.042733247837717,1
570,953,19,0.0413580259128796,1
570,964,19,0.04776795064075,1
570,965,19,0.056640434919479,1
570,966,19,0.050466738545962,1
571,951,19,0.041301460653201,1
571,952,19,0.0413397565559255,1
571,964,19,0.0467135400297777,1
571,965,19,0.0500760857350698,1
572,962,19,0.0411296265105444,1
572,963,19,0.0487732356591549,1
572,964,19,0.051098558763465,1
572,965,19,0.0444554010123311,1
573,962,19,0.0550249566228479,1
573,963,19,0.0669859516592923,1
573,964,19,0.0632083417353992,1
573,965,19,0.0456737005691432,1
574,961,19,0.0533398395817454,1
574,962,19,0.0686516477089242,1
574,963,19,0.0773664445666511,1
574,964,19,0.0659787688769658,1
575,960,19,0.0467206390725953,1
575,961,19,0.0688713287513635,1
575,962,19,0.0742317062262315,1
575,963,19,0.0716290933199835,1
575,964,19,0.0577605697989136,1
576,960,19,0.0539839006468791,1
576,961,19,0.0754040160966714,1
576,962,19,0.0712962817581871,1
576,963,19,0.0606782223296072,1
577,960,19,0.0468897779579446,1
577,961,19,0.0590289627538257,1
577,962,19,0.054936313205487,1
563,956,20,0.0592819438760164,1
563,959,20,0.0475122445242104,1
563,960,20,0.0447508168927504,1
564,952,20,0.0426531335445334,1
564,953,20,0.0461148036226334,1
564,954,20,0.0494753650562469,1
564,955,20,0.0526601048802746,1
564,956,20,0.0513209323598442,1
564,957,20,0.0478675156624457,1
564,958,20,0.045681691723206,1
564,959,20,0.0451267066142187,1
564,960,20,0.0443487342444503,1
564,961,20,0.0416389706675553,1
564,963,20,0.0413577663896083,1
564,964,20,0.0451685250046779,1
565,951,20,0.0424752708925533,1
565,952,20,0.043709850127906,1
565,953,20,0.0436266783261822,1
565,954,20,0.046171758167219,1
565,955,20,0.048399770858253,1
565,956,20,0.0472937962173099,1
565,957,20,0.0455951461189549,1
565,958,20,0.0453618238845668,1
565,959,20,0.0448860771777225,1
565,960,20,0.0437403441122864,1
565,961,20,0.0418177659812917,1
565,962,20,0.0412085242883937,1
565,963,20,0.0429466381441941,1
565,964,20,0.0480234783350406,1
565,965,20,0.0519177547828625,1
566,951,20,0.0444583720131142,1
566,952,20,0.0451781949499021,1
566,953,20,0.0444536519336171,1
566,954,20,0.0452335409908789,1
566,955,20,0.0459971530729675,1
566,956,20,0.0458477055158297,1
566,957,20,0.0458351889247233,1
566,958,20,0.0456820323474996,1
566,959,20,0.0444939699551639,1
566,960,20,0.0422431138095187,1
566,961,20,0.0413602480808903,1
566,962,20,0.0422925421792359,1
566,963,20,0.0453495397830576,1
566,964,20,0.0512135113524562,1
566,965,20,0.0552337376878916,1
567,950,20,0.0416035105972435,1
567,951,20,0.0469234132552549,1
567,952,20,0.0492324242406154,1
567,953,20,0.0489581243630326,1
567,954,20,0.0467672829738806,1
567,955,20,0.0442204513507624,1
567,956,20,0.0430796897779925,1
567,957,20,0.043058863035469,1
567,958,20,0.043022048578085,1
567,959,20,0.0418558915718693,1
567,963,20,0.0427834980311267,1
567,964,20,0.0481852640610357,1
567,965,20,0.0553976374472011,1
567,966,20,0.0621819974848735,1
568,950,20,0.0409839204139016,1
568,951,20,0.047035884152964,1
568,952,20,0.0504238793590502,1
568,953,20,0.0496131286594403,1
568,954,20,0.0445167836727335,1
568,964,20,0.0449235755870611,1
568,965,20,0.0552969586381326,1
568,966,20,0.0602144974976334,1
569,951,20,0.0439254653057612,1
569,952,20,0.0462747564655249,1
569,953,20,0.0448444750566561,1
569,964,20,0.0459690758990513,1
569,965,20,0.0560043541949385,1
569,966,20,0.0545482502205732,1
570,951,20,0.0413163318773213,1
570,952,20,0.0422977029076209,1
570,953,20,0.0410125328545648,1
570,963,20,0.0419303558271668,1
570,964,20,0.0485149613435762,1
570,965,20,0.0542877915841274,1
571,963,20,0.0428535963480577,1
571,964,20,0.0469308529223661,1
571,965,20,0.0469251488171319,1
572,962,20,0.0484370502948314,1
572,963,20,0.0539391869499242,1
572,964,20,0.0501958989786635,1
572,965,20,0.0415813916450981,1
573,961,20,0.0532455028726198,1
573,962,20,0.079303504636859,1
573,963,20,0.0846488946428082,1
573,964,20,0.0635296693924396,1
574,961,20,0.0707408803306188,1
574,962,20,0.104469503290625,1
574,963,20,0.103838558964163,1
574,964,20,0.0690861383257306,1
575,960,20,0.0457855767260222,1
575,961,20,0.0788266900998879,1
575,962,20,0.0998383753947025,1
575,963,20,0.0902954668118613,1
576,960,20,0.0502002892473367,1
576,961,20,0.0731155290766845,1
576,962,20,0.0757890188696775,1
577,960,20,0.0442604638917919,1
577,961,20,0.0546094057981132,1
562,960,21,0.0485424005227837,1
563,953,21,0.0483615019892026,1
563,954,21,0.0549858713368398,1
563,955,21,0.0596721046740401,1
563,956,21,0.0623444860863951,1
563,959,21,0.0498002773784724,1
563,960,21,0.046034729879961,1
563,961,21,0.0420131491574534,1
564,953,21,0.0438145596577822,1
564,954,21,0.0495310706450892,1
564,955,21,0.0535610236964644,1
564,956,21,0.0528319200993594,1
564,957,21,0.0484621213241881,1
564,958,21,0.0470291419546445,1
564,959,21,0.0469334697820186,1
564,960,21,0.0457336288178793,1
564,961,21,0.0431997571381227,1
564,962,21,0.042391423248977,1
564,963,21,0.0437232453134206,1
565,951,21,0.041089727510946,1
565,952,21,0.0424157048950501,1
565,953,21,0.0427272382519654,1
565,954,21,0.0465521814358333,1
565,955,21,0.0492618206578275,1
565,956,21,0.047956445636752,1
565,957,21,0.0458872395608278,1
565,958,21,0.0465528734978901,1
565,959,21,0.0462747672789945,1
565,960,21,0.045236393043496,1
565,961,21,0.043882049225163,1
565,962,21,0.0443792255254633,1
565,963,21,0.0469010672202471,1
565,964,21,0.0510983424940723,1
566,951,21,0.0455289190241544,1
566,952,21,0.0461720825713081,1
566,953,21,0.0456707322717274,1
566,954,21,0.0473270260095088,1
566,955,21,0.0475176242253555,1
566,956,21,0.0462879867456275,1
566,957,21,0.0459897674732044,1
566,958,21,0.0473499019045288,1
566,959,21,0.0464341253810559,1
566,960,21,0.0447165138636899,1
566,961,21,0.0440762510297667,1
566,962,21,0.046077075427065,1
566,963,21,0.0507234016545647,1
566,964,21,0.0565214164659038,1
566,965,21,0.0597140014621541,1
567,950,21,0.0437534716644274,1
567,951,21,0.0496099008387533,1
567,952,21,0.0514880166859622,1
567,953,21,0.0498001151764278,1
567,954,21,0.0476165836927514,1
567,955,21,0.0448785672230586,1
567,956,21,0.0434282187179083,1
567,957,21,0.0430453705287276,1
567,958,21,0.0446022749636949,1
567,959,21,0.0440971588733126,1
567,960,21,0.0427770018392414,1
567,961,21,0.0427663613851172,1
567,962,21,0.0456655634332403,1
567,963,21,0.052519892026208,1
567,964,21,0.0613157142119355,1
567,965,21,0.0652629334071071,1
568,950,21,0.0426196604492677,1
568,951,21,0.0490009619230052,1
568,952,21,0.0522183097647274,1
568,953,21,0.0496284729728572,1
568,954,21,0.0449879697987579,1
568,955,21,0.0420123841044765,1
568,956,21,0.0412696960861382,1
568,958,21,0.0411404832340614,1
568,959,21,0.0415811186049898,1
568,961,21,0.0414872090279149,1
568,962,21,0.045003816938513,1
568,963,21,0.0537336607392417,1
568,964,21,0.0635484794228756,1
568,965,21,0.0675189908316484,1
569,951,21,0.0448909135020183,1
569,952,21,0.0471317131208997,1
569,953,21,0.0446126018271995,1
569,962,21,0.0435758820525557,1
569,963,21,0.0517827594278965,1
569,964,21,0.0610685723633495,1
569,965,21,0.063856884983698,1
570,951,21,0.0413076811016105,1
570,952,21,0.0426766176972206,1
570,953,21,0.0413341200348765,1
570,962,21,0.0412541355033285,1
570,963,21,0.0467124100222005,1
570,964,21,0.0528377864066382,1
570,965,21,0.0534817177101362,1
571,962,21,0.041922232208101,1
571,963,21,0.0458803567874029,1
571,964,21,0.0475748653268864,1
571,965,21,0.0450041089021932,1
572,961,21,0.0428740959831248,1
572,962,21,0.0551321127002298,1
572,963,21,0.0584439756733266,1
572,964,21,0.0506418735002258,1
573,961,21,0.0640052566006067,1
573,962,21,0.0964109921254584,1
573,963,21,0.0936969842617303,1
573,964,21,0.0634369925509035,1
574,960,21,0.0463498884525726,1
574,961,21,0.0854730324178304,1
574,962,21,0.129140499151489,1
574,963,21,0.116957752293169,1
575,960,21,0.0499941034150062,1
575,961,21,0.0826789021508164,1
575,962,21,0.111177952771436,1
575,963,21,0.0945628728430264,1
576,960,21,0.0488329422317635,1
576,961,21,0.065050248679524,1
576,962,21,0.0717832933970273,1
577,960,21,0.0446524116156734,1
562,955,22,0.0657764704869703,1
563,953,22,0.0482065503760189,1
563,954,22,0.0573912087097394,1
563,955,22,0.0599449393264869,1
563,956,22,0.0625048336209284,1
563,959,22,0.0505975220545039,1
563,960,22,0.0462875379866375,1
563,961,22,0.0427528337345996,1
563,962,22,0.0415366319908973,1
564,953,22,0.0421919688014964,1
564,954,22,0.0486245396381571,1
564,955,22,0.0529845630367752,1
564,956,22,0.0533808496653491,1
564,957,22,0.0487711919133933,1
564,958,22,0.0471109620726636,1
564,959,22,0.0470922493634543,1
564,960,22,0.0458383518645925,1
564,961,22,0.0438044625805074,1
564,962,22,0.0442390613320101,1
564,963,22,0.0461183612541445,1
565,952,22,0.0413983087906501,1
565,953,22,0.0425080546291296,1
565,954,22,0.0465506891770232,1
565,955,22,0.0495643599113711,1
565,956,22,0.048653460262705,1
565,957,22,0.0464303947340306,1
565,958,22,0.0472466765233605,1
565,959,22,0.0475541196853851,1
565,960,22,0.0465657415267598,1
565,961,22,0.0457092660707839,1
565,962,22,0.0476650334434664,1
565,963,22,0.0505862652326103,1
565,964,22,0.0544411590240091,1
566,950,22,0.0415201117126572,1
566,951,22,0.0465496024233245,1
566,952,22,0.0474646003769835,1
566,953,22,0.0475380400560328,1
566,954,22,0.0493299238896102,1
566,955,22,0.0490760776898484,1
566,956,22,0.04677612298531,1
566,957,22,0.0465646709932656,1
566,958,22,0.0490424369858033,1
566,959,22,0.0490176795470661,1
566,960,22,0.0478014021090764,1
566,961,22,0.0469712952988138,1
566,962,22,0.0491933768017511,1
566,963,22,0.0563182043377239,1
566,964,22,0.0643665670616351,1
567,950,22,0.0453856783985892,1
567,951,22,0.0520319558357138,1
567,952,22,0.0536465258008953,1
567,953,22,0.0505050128217472,1
567,954,22,0.0482810659952973,1
567,955,22,0.0458611142181814,1
567,956,22,0.0433034447951181,1
567,957,22,0.0428898620218576,1
567,958,22,0.0458823572792861,1
567,959,22,0.0467666287589675,1
567,960,22,0.0468258000648289,1
567,961,22,0.0454655358718689,1
567,962,22,0.0495970219964139,1
567,963,22,0.0784053540688967,1
567,964,22,0.104635089951198,1
567,965,22,0.0931136732690252,1
568,950,22,0.0432934207087632,1
568,951,22,0.0502809144769607,1
568,952,22,0.0529776856700852,1
568,953,22,0.0484354607147946,1
568,954,22,0.0450546186188742,1
568,955,22,0.0438811733341223,1
568,956,22,0.0419581437407702,1
568,958,22,0.0420828987399886,1
568,959,22,0.0443408268947772,1
568,960,22,0.0452747376068338,1
568,961,22,0.0434111631729211,1
568,962,22,0.0493183642905668,1
568,963,22,0.100046491431363,1
568,964,22,0.139082197681125,1
568,965,22,0.112708069538742,1
569,951,22,0.0447109368167239,1
569,952,22,0.0467725004729812,1
569,953,22,0.0431582658551201,1
569,954,22,0.0410047174193836,1
569,959,22,0.0412776818334662,1
569,960,22,0.0422870597501293,1
569,961,22,0.0411723180886769,1
569,962,22,0.0459625878172683,1
569,963,22,0.0867547367538674,1
569,964,22,0.119379991119114,1
569,965,22,0.0955912121787005,1
570,952,22,0.0415205172177687,1
570,962,22,0.0417739768359909,1
570,963,22,0.0548078599996522,1
570,964,22,0.0667676979948453,1
571,962,22,0.0428433451788405,1
571,963,22,0.0452786493794755,1
571,964,22,0.0452505938324987,1
572,961,22,0.0456202495887205,1
572,962,22,0.0557319466745423,1
572,963,22,0.0561288118237418,1
572,964,22,0.0474755111678487,1
573,960,22,0.0466347909371359,1
573,961,22,0.0728398937356013,1
573,962,22,0.0980515252312417,1
573,963,22,0.0867034268404331,1
573,964,22,0.0562354110074373,1
574,960,22,0.0623262491698499,1
574,961,22,0.108322234388096,1
574,962,22,0.141235505517162,1
574,963,22,0.11239141870732,1
575,960,22,0.0639509026954693,1
575,961,22,0.102189904942681,1
575,962,22,0.120144330407035,1
576,960,22,0.0520989020262452,1
576,961,22,0.0690135042501694,1
577,960,22,0.0439756803553946,1
562,955,23,0.0630867550827849,1
563,953,23,0.0475628515621181,1
563,954,23,0.0552794570375228,1
563,955,23,0.0583509095468836,1
563,956,23,0.0610997746299912,1
563,959,23,0.0532218484077858,1
563,960,23,0.0487798805362477,1
563,961,23,0.0446225988798803,1
564,953,23,0.0428760234840878,1
564,954,23,0.047898220509484,1
564,955,23,0.0526687448425157,1
564,956,23,0.0540611142268322,1
564,957,23,0.0507523276858474,1
564,958,23,0.0488300712555745,1
564,959,23,0.0494311758125695,1
564,960,23,0.0479934277029154,1
564,961,23,0.0451939258448585,1
564,962,23,0.0459462000040313,1
565,951,23,0.0413199570930175,1
565,952,23,0.043185648263612,1
565,953,23,0.0446125099127076,1
565,954,23,0.0479060386480325,1
565,955,23,0.0509874395494607,1
565,956,23,0.0507904019124443,1
565,957,23,0.0488741145174117,1
565,958,23,0.0495020202589056,1
565,959,23,0.0507824918594038,1
565,960,23,0.0493317675861836,1
565,961,23,0.0474285861163528,1
565,962,23,0.048947943481368,1
565,963,23,0.0496868440819654,1
566,950,23,0.0442995059239214,1
566,951,23,0.0493638998112141,1
566,952,23,0.0509227209336748,1
566,953,23,0.0509527607523303,1
566,954,23,0.0519501681581037,1
566,955,23,0.0511066526454894,1
566,956,23,0.0483661085272686,1
566,957,23,0.048082260355995,1
566,958,23,0.0508002367630804,1
566,959,23,0.0522375090800705,1
566,960,23,0.0508655663399009,1
566,961,23,0.0489129619070877,1
566,962,23,0.049135303063058,1
566,963,23,0.0532032330198033,1
566,964,23,0.062543783738566,1
567,950,23,0.0480700952026518,1
567,951,23,0.0549992367853129,1
567,952,23,0.056226657503765,1
567,953,23,0.0528445664521015,1
567,954,23,0.0508938760034143,1
567,955,23,0.0482030414051213,1
567,956,23,0.0444158777808027,1
567,957,23,0.0437713030758612,1
567,958,23,0.0471050903586499,1
567,959,23,0.0494191890814753,1
567,960,23,0.0497139750772882,1
567,961,23,0.0464170022518834,1
567,962,23,0.0526783472035546,1
567,963,23,0.0965461713094082,1
567,964,23,0.143001464057281,1
568,950,23,0.0454629784862994,1
568,951,23,0.0524425108374755,1
568,952,23,0.0541110454228875,1
568,953,23,0.0502433755171109,1
568,954,23,0.0488806674800126,1
568,955,23,0.0475955893414485,1
568,956,23,0.0436726544957173,1
568,957,23,0.0411897466983666,1
568,958,23,0.0435834704048745,1
568,959,23,0.0472165069430693,1
568,960,23,0.0485959974850465,1
568,961,23,0.044470791282994,1
568,962,23,0.0583126136441592,1
568,963,23,0.150640758631506,1
568,964,23,0.227442972572629,1
569,951,23,0.0451331190017143,1
569,952,23,0.0463692661901646,1
569,953,23,0.0432855809432754,1
569,954,23,0.0429583626486495,1
569,955,23,0.0423760546052534,1
569,958,23,0.0411465874376722,1
569,959,23,0.04477228433335,1
569,960,23,0.0458737281305146,1
569,961,23,0.0422077186200248,1
569,962,23,0.0511349028349198,1
569,963,23,0.122142281124777,1
569,964,23,0.185363458448637,1
570,959,23,0.0425590536553117,1
570,960,23,0.0433294701131703,1
570,961,23,0.041674027936123,1
570,962,23,0.041989056747099,1
570,963,23,0.0587159344347328,1
570,964,23,0.0789018653408142,1
571,961,23,0.0424019231279959,1
571,962,23,0.0432002302274194,1
571,963,23,0.0425153185773592,1
572,961,23,0.0480518258456977,1
572,962,23,0.0547970951906272,1
572,963,23,0.0527158645364651,1
573,960,23,0.049533947028013,1
573,961,23,0.0747553376800021,1
573,962,23,0.0885791150637082,1
573,963,23,0.0750940317692817,1
574,960,23,0.0658087973544544,1
574,961,23,0.112230968444825,1
574,962,23,0.127119613064644,1
574,963,23,0.0951814141198134,1
575,960,23,0.0686650618180107,1
575,961,23,0.11144668911889,1
575,962,23,0.115997289106416,1
576,960,23,0.0518884989407558,1
561,956,24,0.0624678083008864,1
562,952,24,0.044037333352538,1
562,953,24,0.0520389629640395,1
562,954,24,0.056643906043233,1
562,955,24,0.056524579405773,1
562,956,24,0.0640705915841621,1
562,959,24,0.0640870550916865,1
563,953,24,0.0452851915286068,1
563,954,24,0.0494759922374859,1
563,955,24,0.0530713519440932,1
563,956,24,0.0580269325897819,1
563,957,24,0.0617517133077565,1
563,958,24,0.0589592807554757,1
563,959,24,0.0566551574583917,1
563,960,24,0.0555475824239422,1
564,953,24,0.0429794786514859,1
564,954,24,0.0459564241395744,1
564,955,24,0.0498377838979132,1
564,956,24,0.0524941613752034,1
564,957,24,0.0521037194269692,1
564,958,24,0.0515606561682583,1
564,959,24,0.0537155643978018,1
564,960,24,0.0553628126682306,1
564,961,24,0.054758491104018,1
565,951,24,0.0417359647868445,1
565,952,24,0.0439798813883491,1
565,953,24,0.0464002251537394,1
565,954,24,0.0485663307310935,1
565,955,24,0.0502111675977929,1
565,956,24,0.05047248049834,1
565,957,24,0.0505039855421316,1
565,958,24,0.0524060099707111,1
565,959,24,0.0544996058274047,1
565,960,24,0.0543283420952715,1
565,961,24,0.0532421074431534,1
565,962,24,0.0522714039006521,1
566,950,24,0.0453128659007789,1
566,951,24,0.0495388347162896,1
566,952,24,0.0516087328542707,1
566,953,24,0.0525247310538712,1
566,954,24,0.052784919353576,1
566,955,24,0.0505085109791752,1
566,956,24,0.047468385091357,1
566,957,24,0.0483497531544405,1
566,958,24,0.0521020217122359,1
566,959,24,0.054488354412246,1
566,960,24,0.0534739860793447,1
566,961,24,0.0500998429278654,1
566,962,24,0.0467231423908166,1
566,963,24,0.0457513575013515,1
567,950,24,0.0487470292154862,1
567,951,24,0.0551177794462241,1
567,952,24,0.056563129425034,1
567,953,24,0.0554618964905274,1
567,954,24,0.0543930985582012,1
567,955,24,0.049669272193803,1
567,956,24,0.0440178718105563,1
567,957,24,0.0438794053318364,1
567,958,24,0.047808263255562,1
567,959,24,0.0509744471656901,1
567,960,24,0.0518605082745967,1
567,961,24,0.0456519979355789,1
567,962,24,0.0493638457438659,1
567,963,24,0.0889787268341959,1
568,950,24,0.0460075069701463,1
568,951,24,0.0521994186332691,1
568,952,24,0.0532728879844791,1
568,953,24,0.0524097784648801,1
568,954,24,0.0529931327114637,1
568,955,24,0.0495609266347609,1
568,956,24,0.043492137136941,1
568,957,24,0.0418159195813509,1
568,958,24,0.04487344163845,1
568,959,24,0.0488342831019986,1
568,960,24,0.0508197658892474,1
568,961,24,0.0429327617592806,1
568,962,24,0.0602413797831545,1
568,963,24,0.161030783612351,1
568,964,24,0.25284582405862,1
569,951,24,0.0442418160634005,1
569,952,24,0.0444689475864206,1
569,953,24,0.0430705686163525,1
569,954,24,0.0438504252332054,1
569,955,24,0.0424384294014952,1
569,958,24,0.0425348585169958,1
569,959,24,0.0463919041888527,1
569,960,24,0.0482126653930995,1
569,962,24,0.0488104448081807,1
569,963,24,0.121324782820113,1
570,959,24,0.0446415630022586,1
570,960,24,0.0465243962255973,1
570,961,24,0.0415562016675754,1
570,963,24,0.0508938760034143,1
571,959,24,0.0415793073488253,1
571,960,24,0.04425356760153,1
571,961,24,0.0439821765472799,1
571,962,24,0.0421287505546229,1
572,960,24,0.0427039730720384,1
572,961,24,0.050869989048983,1
572,962,24,0.0573834932991524,1
573,960,24,0.0489332047222508,1
573,961,24,0.0741649654916231,1
573,962,24,0.0850392663034898,1
574,960,24,0.0594540780924555,1
574,961,24,0.0997698504376038,1
574,962,24,0.107362636278914,1
575,960,24,0.0620340908471592,1
562,952,25,0.0431121004498663,1
562,953,25,0.0480391200188725,1
562,954,25,0.0515464310489489,1
562,955,25,0.0531310314830276,1
562,956,25,0.0610407114588262,1
562,957,25,0.068717685568006,1
563,952,25,0.0416496895193344,1
563,953,25,0.044547766966615,1
563,954,25,0.0468168194782942,1
563,955,25,0.0498163083472113,1
563,956,25,0.0561779482297788,1
563,957,25,0.0608499997015482,1
563,958,25,0.0600872229599892,1
563,959,25,0.0595877866445345,1
564,952,25,0.0419898515371174,1
564,953,25,0.045276586710142,1
564,954,25,0.0463478555202806,1
564,955,25,0.0479897781569124,1
564,956,25,0.0514404157926139,1
564,957,25,0.0544353630042829,1
564,958,25,0.0558363669441057,1
564,959,25,0.0587969165088549,1
564,960,25,0.0730864895039706,1
564,961,25,0.0825412412755846,1
565,951,25,0.0417587758010467,1
565,952,25,0.0449403662020422,1
565,953,25,0.0479922598481945,1
565,954,25,0.0482051554384356,1
565,955,25,0.0479965582023757,1
565,956,25,0.0495126985601735,1
565,957,25,0.0522423048538551,1
565,958,25,0.0554713853101351,1
565,959,25,0.0574670273521092,1
565,960,25,0.0645738126139902,1
565,961,25,0.0700632434422578,1
566,950,25,0.0430136356987063,1
566,951,25,0.0467186223605078,1
566,952,25,0.0489795674733255,1
566,953,25,0.0503496611101869,1
566,954,25,0.0499455617497993,1
566,955,25,0.047548231751167,1
566,956,25,0.0465750735510578,1
566,957,25,0.0486276268837389,1
566,958,25,0.0527845733225475,1
566,959,25,0.0548831974426231,1
566,960,25,0.0554228544583979,1
566,961,25,0.0532428481658236,1
566,962,25,0.0477025237427027,1
567,950,25,0.0460908734143236,1
567,951,25,0.0511783513559269,1
567,952,25,0.0531987994972515,1
567,953,25,0.0543524723527696,1
567,954,25,0.054298751035606,1
567,955,25,0.0490321533761772,1
567,956,25,0.0444990685060984,1
567,957,25,0.044988953824495,1
567,958,25,0.0492208592348372,1
567,959,25,0.0524213596908628,1
567,960,25,0.0543432376496984,1
567,961,25,0.0486277187982308,1
567,962,25,0.049094601163339,1
568,950,25,0.0444050778280013,1
568,951,25,0.0493319135680237,1
568,952,25,0.0511086152902288,1
568,953,25,0.0531876183696454,1
568,954,25,0.0546659223971784,1
568,955,25,0.0493573306284088,1
568,956,25,0.0435266104781483,1
568,957,25,0.0431446516968453,1
568,958,25,0.0465473694418442,1
568,959,25,0.0498713056537923,1
568,960,25,0.0525697637481804,1
568,961,25,0.0460322698156182,1
568,962,25,0.0624449810664797,1
568,963,25,0.143740380878083,1
569,951,25,0.0425447095878364,1
569,952,25,0.0432191727228585,1
569,953,25,0.0435534711367301,1
569,954,25,0.0445160970174115,1
569,955,25,0.0417044002689699,1
569,958,25,0.0438854554680991,1
569,959,25,0.0470785486974224,1
569,960,25,0.0495110819464626,1
569,961,25,0.0430488281356445,1
569,962,25,0.0502032359178131,1
570,958,25,0.0413027853032317,1
570,959,25,0.0459110183805627,1
570,960,25,0.0482628561124262,1
570,961,25,0.0430879728957356,1
571,959,25,0.0443958350148279,1
571,960,25,0.0474437898546644,1
571,961,25,0.0457640308877677,1
571,962,25,0.0435752251342752,1
572,960,25,0.046574051678177,1
572,961,25,0.0536685312116095,1
573,960,25,0.0522244085616035,1
573,961,25,0.0739327029772596,1
574,960,25,0.0557864519682548,1
562,952,26,0.0431675735491114,1
562,953,26,0.0469574378374722,1
562,954,26,0.0502063664172735,1
562,955,26,0.0528044592932126,1
563,952,26,0.0426730438455051,1
563,953,26,0.0460833147990464,1
563,954,26,0.0475571961174973,1
563,955,26,0.0490098073411694,1
563,956,26,0.0544287992282124,1
563,957,26,0.0638944942311005,1
563,960,26,0.0834406732396991,1
563,961,26,0.0987582070990515,1
564,952,26,0.0437801025367794,1
564,953,26,0.047764960716395,1
564,954,26,0.0475341147665541,1
564,955,26,0.0469586867932154,1
564,956,26,0.0515006035646213,1
564,957,26,0.0633131188494607,1
564,958,26,0.0715450077800751,1
564,959,26,0.0733204983936807,1
564,960,26,0.0986425029739204,1
564,961,26,0.121245487647255,1
564,962,26,0.090451283502616,1
565,951,26,0.0413437845733658,1
565,952,26,0.0442807175204247,1
565,953,26,0.0472547001178322,1
565,954,26,0.0463908228418888,1
565,955,26,0.0451327783774207,1
565,956,26,0.0485594695846079,1
565,957,26,0.0567711805808771,1
565,958,26,0.0634435130730955,1
565,959,26,0.0632787428294802,1
565,960,26,0.0748623910294224,1
565,961,26,0.0883722425760557,1
566,951,26,0.0429878644971905,1
566,952,26,0.0445020962775972,1
566,953,26,0.0461689953257264,1
566,954,26,0.0461282988327422,1
566,955,26,0.0442163016817887,1
566,956,26,0.0454891741164984,1
566,957,26,0.0493653325959412,1
566,958,26,0.053567344169468,1
566,959,26,0.0533638400776078,1
566,960,26,0.0536605833114252,1
567,950,26,0.043388781994137,1
567,951,26,0.0461076829528765,1
567,952,26,0.047902945995716,1
567,953,26,0.0504396508045178,1
567,954,26,0.0514969161714746,1
567,955,26,0.046871762717527,1
567,956,26,0.0446126829282218,1
567,957,26,0.0465014013824113,1
567,958,26,0.049985944652164,1
567,959,26,0.0512851668090152,1
567,960,26,0.0530711681151093,1
568,950,26,0.0431086455463168,1
568,951,26,0.0458674130642458,1
568,952,26,0.0481573869363079,1
568,953,26,0.0515737999406038,1
568,954,26,0.0530729739645389,1
568,955,26,0.047150306881943,1
568,956,26,0.0429123675555425,1
568,957,26,0.0442181588951991,1
568,958,26,0.0469641746290569,1
568,959,26,0.048575316724363,1
569,952,26,0.0423424084944735,1
569,953,26,0.0436776827590992,1
569,954,26,0.0442455034565472,1
569,958,26,0.043981860253293,1
569,959,26,0.0464316545032435,1
570,958,26,0.0415145211488542,1
561,951,27,0.0417547423768716,1
561,952,27,0.0454184107711847,1
561,953,27,0.0486965573459489,1
561,954,27,0.0520120212044354,1
561,955,27,0.0543538186297396,1
562,952,27,0.0425429415855505,1
562,953,27,0.0463909796371986,1
562,954,27,0.0504525296468572,1
562,955,27,0.0530325369948261,1
562,956,27,0.0547005579404302,1
563,952,27,0.0425915562416774,1
563,953,27,0.0461791167333079,1
563,954,27,0.0485860490929791,1
563,955,27,0.049439745487258,1
563,956,27,0.0541260707389501,1
563,957,27,0.0670956380885696,1
563,958,27,0.0800553597740833,1
563,959,27,0.0772232093478206,1
563,960,27,0.0920986885683546,1
563,961,27,0.114681689949797,1
564,952,27,0.0432562872540249,1
564,953,27,0.0451901195035458,1
564,954,27,0.045071566029165,1
564,955,27,0.0448404173021743,1
564,956,27,0.052171579355685,1
564,957,27,0.0712042807585035,1
564,958,27,0.0872346547566247,1
564,959,27,0.086903708518341,1
564,960,27,0.114755329678035,1
564,961,27,0.145933222759118,1
564,962,27,0.101812947391086,1
565,952,27,0.0411694768495294,1
565,953,27,0.0417121481199658,1
565,956,27,0.0471662837833337,1
565,957,27,0.0597707505508165,1
565,958,27,0.0697730910181851,1
565,959,27,0.0675113294884096,1
565,960,27,0.0784077438456868,1
565,961,27,0.0968182382055108,1
566,953,27,0.0410791086837611,1
566,956,27,0.0439481168212863,1
566,957,27,0.0502877594032418,1
566,958,27,0.0538776907480905,1
567,952,27,0.0424786960590613,1
567,953,27,0.0448365650036156,1
567,954,27,0.0457304875049493,1
567,955,27,0.0432078104696359,1
567,956,27,0.0443654897156551,1
567,957,27,0.0485999335879949,1
567,958,27,0.0502562435459806,1
568,951,27,0.0417433233529334,1
568,952,27,0.0439962908285255,1
568,953,27,0.0467142320918346,1
568,954,27,0.0475588235446778,1
568,955,27,0.04396221217896,1
568,956,27,0.0429482331309657,1
568,957,27,0.0456162810453632,1
568,958,27,0.0464382561264577,1
569,952,27,0.041915143978753,1
569,953,27,0.042950452595609,1
569,954,27,0.0431256524306906,1
560,954,28,0.0519034053086523,1
561,951,28,0.0410092266362229,1
561,952,28,0.0442733346240291,1
561,953,28,0.0471957667083028,1
561,954,28,0.0508484540241981,1
561,955,28,0.0533730855941487,1
562,952,28,0.0429447809307837,1
562,953,28,0.0472727586121284,1
562,954,28,0.0531881482296577,1
562,955,28,0.0558745817458079,1
562,956,28,0.0545782575988198,1
563,952,28,0.0443910527578803,1
563,953,28,0.0479506874641696,1
563,954,28,0.0524653975459652,1
563,955,28,0.0539303469384948,1
563,956,28,0.0568996500069163,1
563,957,28,0.0680654873669694,1
563,958,28,0.0837448993945063,1
563,959,28,0.0774210093344465,1
563,960,28,0.0852326814281773,1
563,961,28,0.104692098563132,1
564,952,28,0.0416986934603682,1
564,953,28,0.0422968405334172,1
564,954,28,0.0438903377496408,1
564,955,28,0.0454593613807053,1
564,956,28,0.053951335883063,1
564,957,28,0.0749912443336338,1
564,958,28,0.0938063300667139,1
564,959,28,0.0884613942264896,1
564,960,28,0.105978090439881,1
564,961,28,0.132444111447251,1
564,962,28,0.0926318466888767,1
565,956,28,0.0465189246099603,1
565,957,28,0.0609083978443305,1
565,958,28,0.0715485437846469,1
565,961,28,0.0883037554661008,1
566,956,28,0.0445415465182055,1
566,957,28,0.0526621215923621,1
566,958,28,0.0540745229291838,1
567,947,28,0.041467633944502,1
567,954,28,0.0414554390541173,1
567,955,28,0.0423556739183524,1
567,956,28,0.046674952163373,1
567,957,28,0.052829178884806,1
568,953,28,0.0412971650023872,1
568,954,28,0.0424198518606564,1
568,955,28,0.042849717015825,1
568,956,28,0.0450009432589566,1
568,957,28,0.048333019310175,1
569,953,28,0.0413631487941208,1
569,954,28,0.0421798063515206,1
569,955,28,0.0418949173837943,1
569,956,28,0.0414853464077697,1
561,952,29,0.0463291752514802,1
561,953,29,0.050245976156559,1
561,954,29,0.0526330712061785,1
561,955,29,0.0538741979973973,1
561,956,29,0.0525771655681479,1
562,952,29,0.0460902300128801,1
562,953,29,0.051424384823875,1
562,954,29,0.0586713775330877,1
562,955,29,0.063124553565906,1
562,956,29,0.0596171235876635,1
562,957,29,0.0542389525485055,1
563,951,29,0.0418501198824498,1
563,952,29,0.0472602312075523,1
563,953,29,0.0512662486438828,1
563,954,29,0.0588157211325561,1
563,955,29,0.0643450050031761,1
563,956,29,0.0640943163365487,1
563,957,29,0.0659847703526151,1
564,954,29,0.0445838569215332,1
564,955,29,0.0499988180877685,1
564,956,29,0.056557209050407,1
564,957,29,0.0702769987033352,1
564,958,29,0.0842948508333768,1
564,961,29,0.0968297653641453,1
565,956,29,0.0462234411453558,1
565,957,29,0.0577110603281741,1
566,956,29,0.0455506378779232,1
566,957,29,0.0526527030603071,1
567,947,29,0.041535937225473,1
567,955,29,0.0415276351841581,1
567,956,29,0.0482040794982066,1
568,948,29,0.0413946538379123,1
568,955,29,0.0420811712882138,1
568,956,29,0.0463272180134757,1
569,949,29,0.0420998164132379,1
569,950,29,0.04184854381925,1
569,954,29,0.041616984180413,1
569,955,29,0.0425952193045174,1
570,949,29,0.04133887525815,1
570,950,29,0.0436908184213424,1
570,951,29,0.0417438099590671,1
561,955,30,0.0521245461694927,1
561,956,30,0.0513334976115641,1
562,952,30,0.0455973412532915,1
562,953,30,0.050606578335326,1
562,954,30,0.0567216332629939,1
562,955,30,0.0662287060074533,1
562,956,30,0.0633219372339508,1
562,957,30,0.0555595637483015,1
563,951,30,0.0416821245215148,1
563,952,30,0.0454564255236985,1
563,953,30,0.0486931889501566,1
563,954,30,0.0571347402435903,1
563,955,30,0.0706718417337123,1
563,956,30,0.0697229057055932,1
563,957,30,0.0634766022901891,1
563,958,30,0.0629328469694213,1
564,954,30,0.0416819488026332,1
564,955,30,0.0520922301154783,1
564,956,30,0.0564266742516668,1
564,957,30,0.0619393378194526,1
565,956,30,0.044571632294107,1
566,956,30,0.045611771828524,1
567,947,30,0.0414049861081518,1
568,948,30,0.0419979589359788,1
568,955,30,0.0430646320215211,1
569,948,30,0.0416444017326812,1
569,949,30,0.0450827201230971,1
569,950,30,0.0435563529263887,1
570,949,30,0.0464473772880977,1
570,950,30,0.0473846942430904,1
561,955,31,0.0514004762425044,1
561,956,31,0.0518566857130795,1
562,954,31,0.0525156423326401,1
562,955,31,0.0643452915601215,1
562,956,31,0.0646255334392707,1
562,957,31,0.0545051152901855,1
563,954,31,0.0521863721821504,1
563,955,31,0.0701060755954956,1
563,956,31,0.0721673499914401,1
563,957,31,0.0601409172434788,1
564,955,31,0.0507038238677843,1
564,956,31,0.0547584154097306,1
569,949,31,0.0420189046266684,1
570,949,31,0.0443740837206502,1
562,955,32,0.0585838479030995,1
562,956,32,0.0627198270242793,1
563,955,32,0.0627619346750513,1
563,956,32,0.0689572093272318,1
563,957,32,0.0566598180638059,1
564,956,32,0.0516254612918013,1
563,956,33,0.0583091911810186,1
