x,y,z,signal,cytoplasm.p
843,800,42,0.0786006939911798,1
854,805,42,0.0500478842062528,1
855,805,42,0.0524858512237863,1
855,806,42,0.0466980335143162,1
842,800,43,0.107052149125186,1
843,799,43,0.130753814754192,1
843,800,43,0.138091110748355,1
843,801,43,0.0822490342922805,1
844,799,43,0.117981614852413,1
844,800,43,0.122141881026401,1
853,805,43,0.0435141993183708,1
854,804,43,0.0464562389264664,1
854,805,43,0.0649528193180818,1
854,806,43,0.0556551169727614,1
855,804,43,0.0502291449910668,1
855,805,43,0.0720169130018304,1
855,806,43,0.0593923818414335,1
856,805,43,0.0532565650520599,1
856,806,43,0.0458689053230559,1
842,799,44,0.131862357594174,1
842,800,44,0.13042821036991,1
843,798,44,0.0997417137896047,1
843,799,44,0.191624197846009,1
843,800,44,0.200220668312217,1
843,801,44,0.10330244876643,1
844,798,44,0.0982446429855142,1
844,799,44,0.169267652145734,1
844,800,44,0.177343432421914,1
844,801,44,0.0912449435134624,1
845,796,44,0.0860722013637602,1
845,797,44,0.0861489715914581,1
845,798,44,0.0722293057657334,1
845,799,44,0.0816710164929634,1
845,800,44,0.0830610285408988,1
846,798,44,0.0507040563573815,1
846,812,44,0.207809993843243,1
853,805,44,0.0446831272761813,1
853,806,44,0.0430463518510973,1
854,804,44,0.0470738286179253,1
854,805,44,0.0720416542203631,1
854,806,44,0.0611255431281395,1
855,804,44,0.0524402400088515,1
855,805,44,0.0817163195240136,1
855,806,44,0.0666769297307005,1
855,812,44,0.0413266884778675,1
856,805,44,0.0558981334826803,1
856,806,44,0.0474061373533834,1
856,812,44,0.0462818068477291,1
856,813,44,0.0442969269114127,1
857,813,44,0.0416414523588373,1
840,805,45,0.0521514122348094,1
840,806,45,0.0752713240107384,1
840,807,45,0.0681384079994761,1
840,808,45,0.0434543494672896,1
841,800,45,0.104915461591983,1
841,801,45,0.0630629492293759,1
841,806,45,0.0436522846222859,1
842,799,45,0.139829192163747,1
842,800,45,0.134387313568214,1
842,801,45,0.071229535616844,1
842,811,45,0.0447371946243734,1
842,812,45,0.051576692543732,1
842,813,45,0.0507800804556744,1
842,814,45,0.0423858164649695,1
843,798,45,0.116864161713449,1
843,799,45,0.218994473624953,1
843,800,45,0.223271719913489,1
843,801,45,0.108672644871729,1
843,809,45,0.0416200633158925,1
843,810,45,0.0463953969395459,1
843,811,45,0.0573087614104813,1
843,812,45,0.0683429934383001,1
843,813,45,0.064207263026922,1
843,814,45,0.0489937871859001,1
844,796,45,0.0938573263895287,1
844,797,45,0.102749296540546,1
844,798,45,0.118564406798575,1
844,799,45,0.19010045021232,1
844,800,45,0.198441939064455,1
844,801,45,0.0969766879761225,1
844,810,45,0.0471684410705266,1
844,811,45,0.059976666046406,1
844,812,45,0.069621080668743,1
844,813,45,0.0622513983330128,1
844,814,45,0.0480501389444341,1
845,795,45,0.0786163843356252,1
845,796,45,0.135545825451395,1
845,797,45,0.1413136328353,1
845,798,45,0.0973100348046659,1
845,799,45,0.0866765824020557,1
845,800,45,0.0885321521650686,1
845,801,45,0.0490005888583026,1
845,810,45,0.0482945341717319,1
845,811,45,0.0795356590165262,1
845,812,45,0.0928311605612519,1
845,813,45,0.0673581729111859,1
845,814,45,0.0447210041569573,1
846,796,45,0.109423661965057,1
846,797,45,0.11330803327469,1
846,798,45,0.0672539580975456,1
846,810,45,0.0606303835399268,1
846,811,45,0.121303512725334,1
846,812,45,0.143298802031929,1
846,813,45,0.0920400038686269,1
846,814,45,0.0491033817006854,1
847,797,45,0.0577110224810304,1
847,810,45,0.0560507656066266,1
847,811,45,0.108306922515088,1
847,812,45,0.126491923592543,1
847,813,45,0.0827262705545675,1
847,814,45,0.0491784812473242,1
848,810,45,0.0442276260878675,1
848,811,45,0.0640429577625011,1
848,812,45,0.0706346163644821,1
848,813,45,0.0549888774813993,1
848,814,45,0.0458182388110651,1
848,815,45,0.0431453464622696,1
848,816,45,0.0433777279247992,1
849,811,45,0.0417511171611753,1
849,816,45,0.0441000974336868,1
849,817,45,0.0461527534943295,1
849,818,45,0.0443014847888653,1
850,816,45,0.0411561195111585,1
850,817,45,0.0509639040327927,1
850,818,45,0.0596704069593068,1
850,819,45,0.052918957716479,1
851,817,45,0.0441941043319884,1
851,818,45,0.0566720210642928,1
851,819,45,0.0593751938314433,1
851,820,45,0.0484850999471697,1
852,818,45,0.044425707224704,1
852,819,45,0.0519047732125616,1
852,820,45,0.0446931351423316,1
853,805,45,0.0446352290124179,1
853,806,45,0.0440974400235232,1
853,819,45,0.0473369419611672,1
854,804,45,0.0454248069384758,1
854,805,45,0.0676949476096047,1
854,806,45,0.0604078423347682,1
854,819,45,0.0413668497041045,1
855,804,45,0.048493972399008,1
855,805,45,0.073639403833522,1
855,806,45,0.0629381726032182,1
855,812,45,0.0416452695136197,1
856,805,45,0.0492866213504432,1
856,806,45,0.0435966060671177,1
856,812,45,0.0491453325561476,1
856,813,45,0.0482916091281947,1
857,813,45,0.045273821165282,1
839,805,46,0.0596721046740401,1
839,806,46,0.09506548291182,1
839,807,46,0.0842569712492334,1
839,808,46,0.0487214878002003,1
840,801,46,0.0565490394740951,1
840,805,46,0.0514945696485631,1
840,806,46,0.0796586784538676,1
840,807,46,0.0710033664926217,1
840,808,46,0.0435328363332926,1
841,799,46,0.0906466126114296,1
841,800,46,0.0824774147710438,1
841,801,46,0.0567931697713868,1
841,806,46,0.0441839991446113,1
842,797,46,0.0457332124992982,1
842,798,46,0.0781502102527783,1
842,799,46,0.126151039775661,1
842,800,46,0.118759806194942,1
842,801,46,0.0666803738207803,1
843,797,46,0.0648948483073503,1
843,798,46,0.113081231562494,1
843,799,46,0.196238456729296,1
843,800,46,0.192531577710307,1
843,801,46,0.0945670144018979,1
843,811,46,0.0420289611534321,1
843,812,46,0.0483266880237017,1
843,813,46,0.0473538380074772,1
844,796,46,0.1054837743023,1
844,797,46,0.119520587851352,1
844,798,46,0.118286424934581,1
844,799,46,0.169631168554569,1
844,800,46,0.170289708855548,1
844,801,46,0.083598068697021,1
844,811,46,0.046069987197717,1
844,812,46,0.0522691979528458,1
844,813,46,0.0477522440761002,1
845,795,46,0.0931417882900851,1
845,796,46,0.172282728631135,1
845,797,46,0.185601981961922,1
845,798,46,0.111395952319347,1
845,799,46,0.0794310170708352,1
845,800,46,0.0753095874730539,1
845,801,46,0.0416886369336045,1
845,811,46,0.0538205956283997,1
845,812,46,0.0605267093997685,1
845,813,46,0.0490114834289633,1
845,828,46,0.0455482535078679,1
846,795,46,0.0831817825563509,1
846,796,46,0.142398256280442,1
846,797,46,0.152713830522826,1
846,798,46,0.0807091205214826,1
846,810,46,0.0438407309576746,1
846,811,46,0.0712248641979602,1
846,812,46,0.0799399638328369,1
846,813,46,0.0589161944857014,1
847,794,46,0.0528288707009213,1
847,795,46,0.0564731829845816,1
847,796,46,0.069743456704641,1
847,797,46,0.0719669169249572,1
847,798,46,0.0430708416564609,1
847,810,46,0.041477666140959,1
847,811,46,0.0644140057529389,1
847,812,46,0.069609266953163,1
847,813,46,0.0525081972587941,1
848,811,46,0.0469376978486472,1
848,812,46,0.0480425046348694,1
850,817,46,0.041017147502733,1
850,818,46,0.0431507667139259,1
853,805,46,0.0421779329179058,1
853,806,46,0.0425462099567487,1
853,827,46,0.0412808772137443,1
854,805,46,0.0551176064307098,1
854,806,46,0.052670139780099,1
854,827,46,0.0444681419829325,1
855,805,46,0.0543588739267956,1
855,806,46,0.0503714664717128,1
856,812,46,0.0475139422389436,1
856,813,46,0.0479313043198427,1
857,812,46,0.0443177833909778,1
857,813,46,0.0454631244681395,1
838,805,47,0.042556580074132,1
838,806,47,0.0551211045881379,1
838,807,47,0.0484632080778867,1
839,805,47,0.0546941834000784,1
839,806,47,0.0818451620147553,1
839,807,47,0.0728924363845744,1
839,808,47,0.0446666421417175,1
840,800,47,0.0583456704208438,1
840,801,47,0.046664035965773,1
840,805,47,0.0477172030277369,1
840,806,47,0.0693075657435164,1
840,807,47,0.0623720712474427,1
841,799,47,0.0672419227058381,1
841,800,47,0.0638724023126292,1
841,801,47,0.0506199654107384,1
841,806,47,0.0424087004700918,1
842,797,47,0.0467901372419614,1
842,798,47,0.0694030000198103,1
842,799,47,0.0976025824122636,1
842,800,47,0.0909490004763982,1
842,801,47,0.0580466293247282,1
843,796,47,0.0531174659853662,1
843,797,47,0.0650307033331525,1
843,798,47,0.0943069612705636,1
843,799,47,0.139331653612214,1
843,800,47,0.129109886218942,1
843,801,47,0.0700645518720841,1
844,795,47,0.0684302743584866,1
844,796,47,0.104520477986501,1
844,797,47,0.116471384055773,1
844,798,47,0.102052271101123,1
844,799,47,0.122172839989975,1
844,800,47,0.113248948476585,1
844,801,47,0.0605141171143746,1
845,795,47,0.103127270558287,1
845,796,47,0.180397599600057,1
845,797,47,0.192443037020908,1
845,798,47,0.108363801365387,1
845,799,47,0.0657356550458201,1
845,800,47,0.0546096923550586,1
845,829,47,0.0458588866434359,1
846,794,47,0.0738120895369127,1
846,795,47,0.10242110773702,1
846,796,47,0.16466885652403,1
846,797,47,0.172654928256089,1
846,798,47,0.086176367516787,1
846,812,47,0.0411145876776448,1
847,793,47,0.0604669325396074,1
847,794,47,0.0699742594006033,1
847,795,47,0.0696240057122802,1
847,796,47,0.0829844097017758,1
847,797,47,0.0826408062972803,1
847,798,47,0.044190722419359,1
848,794,47,0.0541411393088913,1
848,795,47,0.0443527892955647,1
853,827,47,0.0421875920496603,1
853,828,47,0.0456579885977586,1
854,805,47,0.0416942545310817,1
854,806,47,0.0412519484790941,1
854,827,47,0.0478967715045524,1
854,828,47,0.0554100567170808,1
855,827,47,0.0471314211572195,1
855,828,47,0.0538185464759032,1
856,812,47,0.0416959900929586,1
856,813,47,0.0414292272037137,1
838,806,48,0.0437637769009928,1
839,805,48,0.0467541283880655,1
839,806,48,0.0612357702308987,1
839,807,48,0.0543339759129531,1
840,800,48,0.0428471758504599,1
840,805,48,0.0434623784684961,1
840,806,48,0.0560035756251245,1
840,807,48,0.0494926341672595,1
841,798,48,0.0466194358102494,1
841,799,48,0.0517084979251547,1
841,800,48,0.0499511252799283,1
841,801,48,0.0431565600302846,1
842,797,48,0.0460505445793072,1
842,798,48,0.0590487568099988,1
842,799,48,0.0698136955966773,1
842,800,48,0.0641218582437178,1
842,801,48,0.0468732063157237,1
843,795,48,0.0451168393231737,1
843,796,48,0.0496426223978791,1
843,797,48,0.0583279038902279,1
843,798,48,0.0728108109090088,1
843,799,48,0.0864904068952911,1
843,800,48,0.0745979800698239,1
843,801,48,0.0471574113314954,1
844,794,48,0.0486485887946329,1
844,795,48,0.0627463362450979,1
844,796,48,0.0871783490202175,1
844,797,48,0.0942048280498288,1
844,798,48,0.079137409743213,1
844,799,48,0.0763889339450124,1
844,800,48,0.0637421216304255,1
845,794,48,0.0628882900677762,1
845,795,48,0.0894806772813415,1
845,796,48,0.148964378873871,1
845,797,48,0.153914698766581,1
845,798,48,0.0875740571281657,1
845,799,48,0.0490424261723337,1
846,793,48,0.0691220011977864,1
846,794,48,0.0838473462058606,1
846,795,48,0.0994334974645009,1
846,796,48,0.152742453776959,1
846,797,48,0.152785523826529,1
846,798,48,0.0760381558034118,1
847,793,48,0.072971039495376,1
847,794,48,0.0856655932784165,1
847,795,48,0.0718902764588949,1
847,796,48,0.0802399781412199,1
847,797,48,0.0755314366161556,1
848,793,48,0.0553199318543794,1
848,794,48,0.0625700226226436,1
848,795,48,0.0465018447346664,1
849,794,48,0.0415064651139735,1
853,828,48,0.0423145178529086,1
854,827,48,0.0465568798883912,1
854,828,48,0.0556166210208486,1
854,829,48,0.0488668046119361,1
855,827,48,0.0439306395509832,1
855,828,48,0.0523161824784247,1
855,829,48,0.0479651721067502,1
839,806,49,0.0412644001893828,1
840,806,49,0.0415010475656847,1
841,798,49,0.0421990975813556,1
841,799,49,0.0414785933959805,1
842,795,49,0.0416751309100261,1
842,796,49,0.0414061836999143,1
842,797,49,0.0430657187752197,1
842,798,49,0.0483743105439893,1
842,799,49,0.048666977099753,1
842,800,49,0.043759778620594,1
843,794,49,0.0435168134746559,1
843,795,49,0.043504861887338,1
843,796,49,0.0448286062899617,1
843,797,49,0.0487754686406353,1
843,798,49,0.0545324247077573,1
843,799,49,0.0524909714016601,1
843,800,49,0.042535526248746,1
844,794,49,0.0485414813778644,1
844,795,49,0.0540929112343039,1
844,796,49,0.0662774747555226,1
844,797,49,0.0673417959114185,1
844,798,49,0.0574303156226867,1
844,799,49,0.0466680856101526,1
845,794,49,0.0601848469638848,1
845,795,49,0.0707367441784821,1
845,796,49,0.105670868953984,1
845,797,49,0.102724512068135,1
845,798,49,0.0620215796627876,1
845,831,49,0.0437835141864503,1
846,793,49,0.0707515748520912,1
846,794,49,0.0826126209886677,1
846,795,49,0.0832190241457856,1
846,796,49,0.118655813057429,1
846,797,49,0.111314829670119,1
846,798,49,0.0577626405783493,1
847,792,49,0.0525197460443679,1
847,793,49,0.0814926645314822,1
847,794,49,0.0924607559722577,1
847,795,49,0.0683136997490496,1
847,796,49,0.0694864637852144,1
847,797,49,0.0607465364240479,1
848,793,49,0.0605080669781119,1
848,794,49,0.0667455736359651,1
848,795,49,0.0463089486565216,1
849,794,49,0.0467275164392854,1
850,793,49,0.0542648508082896,1
851,792,49,0.0524218517037313,1
851,793,49,0.0546162561311292,1
854,827,49,0.0424292082152611,1
854,828,49,0.0502863103983103,1
854,829,49,0.045808193097771,1
855,828,49,0.0472224327244312,1
855,829,49,0.0445009094993043,1
841,796,50,0.0445175622425475,1
841,797,50,0.0411832532098487,1
842,794,50,0.0428490222504007,1
842,795,50,0.0436016154069277,1
842,796,50,0.0428384223467876,1
842,797,50,0.0414136747310063,1
842,798,50,0.0411927366227216,1
843,794,50,0.0432441545410906,1
843,795,50,0.0411311512097634,1
843,796,50,0.0415247777248062,1
843,797,50,0.0426533525172935,1
843,798,50,0.0432593231356259,1
844,793,50,0.0451458113117024,1
844,794,50,0.0457933191702833,1
844,795,50,0.0451411507062883,1
844,796,50,0.0492062664575601,1
844,797,50,0.0482081778031995,1
844,798,50,0.042596906205781,1
845,793,50,0.0522116648876346,1
845,794,50,0.0543106728858823,1
845,795,50,0.0543643293222282,1
845,796,50,0.0674318667067717,1
845,797,50,0.0625954613099679,1
845,798,50,0.0424109415616744,1
846,792,50,0.0521919194920749,1
846,793,50,0.0663402090996299,1
846,794,50,0.0712912589015401,1
846,795,50,0.0637784927355543,1
846,796,50,0.0772761629086399,1
846,797,50,0.0684408553385278,1
847,792,50,0.0575417268003713,1
847,793,50,0.0812369313812685,1
847,794,50,0.0859959285556656,1
847,795,50,0.0615016896695118,1
847,796,50,0.0543355600862552,1
847,797,50,0.0441755213844148,1
848,792,50,0.0499013616926523,1
848,793,50,0.0633100370106137,1
848,794,50,0.0643954930929179,1
848,795,50,0.0444154073948734,1
849,793,50,0.0634838527215816,1
849,794,50,0.053138076458497,1
850,792,50,0.0739032470859646,1
850,793,50,0.0853216816900363,1
850,794,50,0.0626742806901623,1
851,791,50,0.0461972563286264,1
851,792,50,0.0778961748172978,1
851,793,50,0.0899745392531976,1
851,794,50,0.0633082419746537,1
852,792,50,0.0552732230722763,1
852,793,50,0.0619995093712556,1
859,827,50,0.0472035199660336,1
859,828,50,0.0490730336981452,1
859,829,50,0.042308929992473,1
860,826,50,0.0444520299131713,1
860,827,50,0.0513895438247,1
841,796,51,0.0416121316359127,1
842,795,51,0.0412824667937812,1
844,793,51,0.044774317265642,1
844,794,51,0.041958281612508,1
845,793,51,0.0500284794349867,1
845,794,51,0.0483868595755047,1
845,795,51,0.0447328881600899,1
845,796,51,0.0446833516556763,1
846,792,51,0.050491204021019,1
846,793,51,0.0578028558719346,1
846,794,51,0.05785458210395,1
846,795,51,0.0513195536424653,1
846,796,51,0.049150793358315,1
847,792,51,0.0547582207672771,1
847,793,51,0.067889892840246,1
847,794,51,0.0681033777645825,1
847,795,51,0.0536748192442042,1
847,796,51,0.0428105857725709,1
848,792,51,0.0506496213512218,1
848,793,51,0.0593719551972866,1
848,794,51,0.0562545346284929,1
848,795,51,0.0429271928224168,1
849,792,51,0.0610393922155303,1
849,793,51,0.0704367298700991,1
849,794,51,0.0550812731727248,1
850,791,51,0.0497356074232998,1
850,792,51,0.0925425166161937,1
850,793,51,0.110749425783135,1
850,794,51,0.0758972184468795,1
851,791,51,0.050649702452244,1
851,792,51,0.0988515922228488,1
851,793,51,0.119485919867692,1
851,794,51,0.0799980591984693,1
852,792,51,0.0638761599933285,1
852,793,51,0.0757937930165229,1
859,826,51,0.0417727684307588,1
859,827,51,0.0575554436866077,1
859,828,51,0.0551474137597681,1
859,829,51,0.041345858056169,1
860,826,51,0.0496353449328125,1
860,827,51,0.0647240928082901,1
860,828,51,0.0658712451416162,1
860,829,51,0.0610825920267357,1
861,825,51,0.0445703833383638,1
861,826,51,0.0474343334754656,1
861,827,51,0.0559846250195832,1
841,796,52,0.0414420114281938,1
845,792,52,0.0418718387362186,1
845,793,52,0.0440867752390923,1
845,836,52,0.0567298460931843,1
846,792,52,0.0460438834820099,1
846,793,52,0.0486371643639599,1
846,794,52,0.0464104330690781,1
846,795,52,0.0431469982197569,1
846,836,52,0.0795874501293594,1
846,837,52,0.156973137265232,1
847,792,52,0.0492209998099425,1
847,793,52,0.053098628921256,1
847,794,52,0.0502876134214017,1
847,795,52,0.0453810610470536,1
847,836,52,0.0510570674804624,1
847,837,52,0.101008738840607,1
848,792,52,0.0490618796042132,1
848,793,52,0.0531154006126652,1
848,794,52,0.0469764208834224,1
849,792,52,0.0609213577876921,1
849,793,52,0.0713486946455245,1
849,794,52,0.0534799659280548,1
850,791,52,0.0513762162233706,1
850,792,52,0.100451769459942,1
850,793,52,0.123704276000577,1
850,794,52,0.0833866707723248,1
850,795,52,0.0411786980357635,1
851,791,52,0.0534117491548408,1
851,792,52,0.110307176501863,1
851,793,52,0.137665503396857,1
851,794,52,0.0926099277859196,1
851,795,52,0.0433647112107219,1
852,792,52,0.0667748456982763,1
852,793,52,0.0831730128324742,1
852,794,52,0.0608988495506398,1
853,795,52,0.046800318123626,1
853,796,52,0.0515686743559952,1
854,796,52,0.0862814744416724,1
854,797,52,0.0556087109678081,1
859,827,52,0.0605718123816304,1
859,828,52,0.055099299226612,1
860,826,52,0.0488337694621908,1
860,827,52,0.069977379086594,1
860,828,52,0.0676102186682529,1
860,829,52,0.0575953670165127,1
861,827,52,0.0538334366235953,1
861,828,52,0.0816836412187663,1
843,793,53,0.0432376934929817,1
845,836,53,0.058292132932664,1
845,837,53,0.120941369627144,1
846,836,53,0.0923457114687745,1
846,837,53,0.189913939487997,1
846,838,53,0.161232325059472,1
847,792,53,0.0415949895831684,1
847,793,53,0.0415557583153203,1
847,836,53,0.0547220929652151,1
847,837,53,0.117375292796317,1
847,838,53,0.0953050553316591,1
848,792,53,0.0456728408983069,1
848,793,53,0.0471495012784549,1
849,792,53,0.0588370669216223,1
849,793,53,0.06804976998885,1
849,794,53,0.0515710857597245,1
850,791,53,0.0498238183018752,1
850,792,53,0.092311335448794,1
850,793,53,0.114216440418604,1
850,794,53,0.0800089267354559,1
850,795,53,0.0417075010313887,1
851,791,53,0.0527254885244432,1
851,792,53,0.10316696680533,1
851,793,53,0.130526169591364,1
851,794,53,0.0924799606943355,1
851,795,53,0.0464625972466138,1
852,792,53,0.0626462629903292,1
852,793,53,0.0805446152078734,1
852,794,53,0.0634775592822521,1
852,795,53,0.0413262883794908,1
853,794,53,0.0418201070974684,1
853,795,53,0.0553960911210428,1
853,796,53,0.0599009663522023,1
854,795,53,0.0975121277387383,1
854,796,53,0.115562371357558,1
854,797,53,0.0672616681013978,1
855,796,53,0.121960798663836,1
855,797,53,0.0700185567789771,1
859,827,53,0.0534214758707806,1
859,828,53,0.0483054233356578,1
860,826,53,0.0460212454833219,1
860,827,53,0.0686315779092753,1
860,828,53,0.0663495140902537,1
860,829,53,0.0539600731665308,1
860,830,53,0.0452807634127898,1
861,827,53,0.0597571093588677,1
861,828,53,0.0848383412241384,1
862,827,53,0.0661530657873326,1
844,837,54,0.046321584195794,1
845,836,54,0.0530469783835282,1
845,837,54,0.109226002553536,1
845,838,54,0.0919837413860982,1
846,836,54,0.0848082797785436,1
846,837,54,0.173616202453066,1
846,838,54,0.144474777668576,1
847,836,54,0.0489135350209786,1
847,837,54,0.106534551587474,1
847,838,54,0.0845436579562871,1
849,792,54,0.0522135518380865,1
849,793,54,0.0585069046598874,1
849,794,54,0.0462670140212638,1
850,791,54,0.0434834349972495,1
850,792,54,0.0733027426765344,1
850,793,54,0.0896339095528527,1
850,794,54,0.0674018593285251,1
851,792,54,0.0807334940820476,1
851,793,54,0.102855820029954,1
851,794,54,0.0791841942196036,1
851,795,54,0.0444274914471943,1
852,792,54,0.0516990793930996,1
852,793,54,0.0683375380428675,1
852,794,54,0.0591724304622533,1
852,795,54,0.0418256300770862,1
853,794,54,0.0437875989746063,1
853,795,54,0.0572378737102667,1
853,796,54,0.058289202482392,1
854,795,54,0.103952208530063,1
854,796,54,0.118410131027244,1
854,797,54,0.0651171948700554,1
855,796,54,0.132710468831385,1
855,797,54,0.0720458174061739,1
859,827,54,0.0415573046414785,1
860,827,54,0.0606305457419714,1
860,828,54,0.0611488731888844,1
860,829,54,0.0476650010030574,1
861,826,54,0.0416464887323214,1
861,827,54,0.0666150496506946,1
861,828,54,0.086127323025242,1
861,829,54,0.0995691308141755,1
861,830,54,0.086309389413544,1
862,827,54,0.0721058321626671,1
862,828,54,0.140670782878765,1
844,837,55,0.0432733482057469,1
844,838,55,0.0419734664272478,1
845,836,55,0.0462108380464922,1
845,837,55,0.0826432879885623,1
845,838,55,0.0724836710120378,1
845,839,55,0.0435278351035848,1
846,836,55,0.0648478691885062,1
846,837,55,0.12116667908053,1
846,838,55,0.103401911060164,1
846,839,55,0.0516981494347107,1
847,837,55,0.0770747512231548,1
847,838,55,0.0640952300747332,1
849,792,55,0.0448090582402229,1
849,793,55,0.0485300245067825,1
850,792,55,0.054514998801435,1
850,793,55,0.0637470147254369,1
850,794,55,0.0518034942559282,1
851,792,55,0.056356359665343,1
851,793,55,0.0697444677640522,1
851,794,55,0.0590794616570371,1
852,792,55,0.0410807982883921,1
852,793,55,0.0531968260390425,1
852,794,55,0.0506774930692148,1
853,794,55,0.0440462733885616,1
853,795,55,0.0540350321380643,1
853,796,55,0.0507205414918453,1
854,794,55,0.0492458816035805,1
854,795,55,0.0903492043492294,1
854,796,55,0.0963251980573472,1
854,797,55,0.0549995774096065,1
855,795,55,0.102885059651856,1
855,796,55,0.113337175575365,1
855,797,55,0.063744289731088,1
856,796,55,0.0625541862963581,1
860,827,55,0.0448655315854095,1
860,828,55,0.0486941405354847,1
861,827,55,0.0627992627722432,1
861,828,55,0.0783044103298221,1
861,829,55,0.0774633656950202,1
861,830,55,0.0651541336823402,1
861,831,55,0.044599549969346,1
862,827,55,0.0693005694286604,1
862,828,55,0.11633477749383,1
837,825,56,0.0462098756476944,1
837,826,56,0.0486909884090851,1
838,825,56,0.0414308357073225,1
838,826,56,0.0454556145134756,1
845,837,56,0.0528973307772021,1
845,838,56,0.0497303034164422,1
846,836,56,0.0420898572077009,1
846,837,56,0.0669886874671108,1
846,838,56,0.0611975662426662,1
847,837,56,0.0458897374723143,1
847,838,56,0.0419580923767894,1
849,793,56,0.0423056913583163,1
850,792,56,0.0454194326440655,1
850,793,56,0.049032904912317,1
851,792,56,0.0428206422993347,1
851,793,56,0.0485011363226435,1
851,794,56,0.0431904007835181,1
852,793,56,0.0414722972532836,1
852,794,56,0.041842788350035,1
853,795,56,0.0459025135866921,1
854,794,56,0.0435857763772749,1
854,795,56,0.0654217508356866,1
854,796,56,0.0645230001201593,1
855,795,56,0.073028550933648,1
855,796,56,0.0757133624293524,1
855,797,56,0.0461277581592603,1
856,796,56,0.0469867098997834,1
861,827,56,0.052506467103652,1
861,828,56,0.0626066478443089,1
861,829,56,0.0566368881014376,1
861,830,56,0.0485708345411979,1
862,827,56,0.0609309060813829,1
862,828,56,0.0876856413213645,1
862,829,56,0.104190548214363,1
862,830,56,0.094679247403275,1
863,827,56,0.066458092138893,1
863,828,56,0.120965732374239,1
836,823,57,0.0447718112440533,1
836,824,57,0.0468215774049351,1
836,825,57,0.0442878300800794,1
837,823,57,0.0460530100503847,1
837,824,57,0.0510014051454987,1
837,825,57,0.0556546141464232,1
837,826,57,0.0550112343298767,1
838,825,57,0.0471911655769717,1
838,826,57,0.0503662543793471,1
854,795,57,0.0421349926299716,1
855,795,57,0.0439525665640425,1
855,796,57,0.0418053358979423,1
861,828,57,0.0460008999401972,1
861,829,57,0.0427969878345006,1
862,827,57,0.0496968681683202,1
862,828,57,0.0635800439407501,1
863,827,57,0.0539867229624547,1
863,828,57,0.080845656795872,1
836,823,58,0.0576008440388845,1
836,824,58,0.0597137094984739,1
836,825,58,0.0480606712638619,1
837,823,58,0.0609911154803296,1
837,824,58,0.0665594630100184,1
837,825,58,0.0613640450144844,1
837,826,58,0.052139014591869,1
838,824,58,0.043166178611528,1
838,825,58,0.0486808886284429,1
838,826,58,0.0481526776702804,1
839,835,58,0.043542019672383,1
840,835,58,0.0529548205885348,1
840,836,58,0.0623785917696347,1
841,835,58,0.0438572809729562,1
841,836,58,0.0523447246315353,1
841,837,58,0.0427255864944782,1
833,811,59,0.048400846798482,1
833,812,59,0.0523359549076586,1
833,813,59,0.0414178487302867,1
834,811,59,0.0540233265571807,1
834,812,59,0.0589296680688709,1
834,813,59,0.0427975690584937,1
835,812,59,0.0427713085474768,1
836,823,59,0.0594436322807848,1
836,824,59,0.0633485654029354,1
836,825,59,0.0471968264283274,1
837,823,59,0.0643631391917598,1
837,824,59,0.0720243851093506,1
837,825,59,0.0576024822795348,1
837,826,59,0.043271461255295,1
838,824,59,0.0437470754971363,1
838,825,59,0.042473711049558,1
839,835,59,0.0543719095644447,1
839,836,59,0.0676641184076655,1
840,835,59,0.0752758656679865,1
840,836,59,0.0964651351679379,1
840,837,59,0.064676275645549,1
841,835,59,0.0574898275528418,1
841,836,59,0.0745858149164807,1
841,837,59,0.0530434640058957,1
847,792,59,0.0463524404314073,1
848,791,59,0.043332708747327,1
848,792,59,0.04438478094549,1
833,811,60,0.0553765403679365,1
833,812,60,0.0639560390935475,1
833,813,60,0.0440057931649702,1
834,811,60,0.0618829131348793,1
834,812,60,0.0712827162605257,1
834,813,60,0.0457039945043352,1
835,812,60,0.0448872612526479,1
836,823,60,0.0502727016467703,1
836,824,60,0.0561286117745535,1
836,825,60,0.0416207175308056,1
837,823,60,0.0543390852773573,1
837,824,60,0.0636759377895036,1
837,825,60,0.0476681585361919,1
839,835,60,0.0535479231779974,1
839,836,60,0.0719954266376589,1
840,835,60,0.0826040621274489,1
840,836,60,0.112649384839014,1
840,837,60,0.0707574465661049,1
841,835,60,0.0592267951808605,1
841,836,60,0.0817101071857063,1
841,837,60,0.0528987960023381,1
846,792,60,0.0444180837286089,1
847,791,60,0.0563413235358108,1
847,792,60,0.0573631964166411,1
847,793,60,0.045112478791542,1
848,792,60,0.0505210167568121,1
833,811,61,0.0570265514798579,1
833,812,61,0.0676087101892383,1
833,813,61,0.0454967759856542,1
834,811,61,0.0608111414984026,1
834,812,61,0.0709451738057626,1
834,813,61,0.0453987032227686,1
835,812,61,0.0429142545059944,1
836,824,61,0.0423946267393574,1
837,824,61,0.0456401355593855,1
838,832,61,0.0430004757061563,1
838,833,61,0.0415209227228801,1
839,835,61,0.0452459927011675,1
839,836,61,0.060811249633099,1
839,837,61,0.0414465747123812,1
840,835,61,0.0705965151042111,1
840,836,61,0.0962299422033024,1
840,837,61,0.0621816784875191,1
841,835,61,0.0510939684456035,1
841,836,61,0.0691403408422932,1
841,837,61,0.0453664682697765,1
847,792,61,0.0586819422929244,1
847,793,61,0.04683533754505,1
848,792,61,0.0511637964257936,1
833,811,62,0.0508031023325346,1
833,812,62,0.0584465709060399,1
833,813,62,0.0413394781090823,1
834,811,62,0.0518403681873952,1
834,812,62,0.056933301524431,1
838,832,62,0.0419545023048694,1
838,833,62,0.0430437376948122,1
839,836,62,0.0445253371272175,1
840,835,62,0.0510010591144703,1
840,836,62,0.0641382136165459,1
840,837,62,0.0463419946197366,1
841,836,62,0.0492450760000924,1
847,793,62,0.0415546337144779,1
833,812,63,0.0421164340127047,1
834,811,63,0.0419355084454495,1
834,812,63,0.0411404453869176,1
842,840,63,0.0424589479601341,1
842,840,64,0.0502888948175538,1
845,794,64,0.0426120342498052,1
845,795,64,0.0433856596047789,1
842,839,65,0.0444626595538259,1
842,840,65,0.0535568605106536,1
843,840,65,0.0439060118738817,1
845,794,65,0.0433891658723092,1
845,795,65,0.0440582574162884,1
846,794,65,0.0424393863935582,1
846,795,65,0.0431796467879627,1
842,839,66,0.0459639989750561,1
842,840,66,0.0495714319205146,1
843,840,66,0.0426277029673112,1
846,794,66,0.0418554725499208,1
846,795,66,0.0421845480579571,1
842,840,67,0.0412302107017535,1
844,842,67,0.0438827845410984,1
844,843,67,0.0508751903278791,1
845,843,67,0.0440602957553152,1
864,811,67,0.0444254747351068,1
844,843,68,0.0464385048362594,1
863,811,68,0.0430860129543636,1
863,812,68,0.041063083121757,1
864,811,68,0.0532617014501382,1
864,812,68,0.048983741472606,1
863,811,69,0.042517970580788,1
863,812,69,0.0441289693976214,1
864,811,69,0.0520092745831472,1
864,812,69,0.0541378628275908,1
