x,y,z,signal,cytoplasm.p
657,750,13,0.0415146563172246,1
654,749,14,0.0423565011487798,1
657,750,14,0.0471338109340095,1
654,748,15,0.046360134215055,1
654,749,15,0.0554512884768121,1
654,750,15,0.0432945723432797,1
655,748,15,0.0460254951768898,1
655,749,15,0.0560385842330789,1
655,750,15,0.0449774131490234,1
657,750,15,0.0452337140063931,1
654,748,16,0.046841079497428,1
654,749,16,0.0607139824737014,1
654,750,16,0.0480335510820087,1
655,748,16,0.050031550460364,1
655,749,16,0.0650076760495575,1
655,750,16,0.0518998476771413,1
656,749,16,0.0460729014277846,1
656,750,16,0.0413606103321232,1
657,750,16,0.0416456966456704,1
654,748,17,0.0431902250646364,1
654,749,17,0.0568955300749841,1
654,750,17,0.0505006387732785,1
654,751,17,0.0411194050783687,1
655,748,17,0.0489862880447058,1
655,749,17,0.0636773976079048,1
655,750,17,0.055593582923784,1
655,751,17,0.0423262396539967,1
656,748,17,0.0426891505085315,1
656,749,17,0.0508382569223291,1
656,750,17,0.0460736691841289,1
657,749,17,0.0439140300616186,1
657,750,17,0.0416496084183121,1
658,744,17,0.0417007480195995,1
658,748,17,0.0412359012901507,1
658,749,17,0.0468949576099014,1
659,743,17,0.0413560930051817,1
659,744,17,0.0410957154697583,1
653,749,18,0.0419038898602268,1
653,750,18,0.0417733523581193,1
654,748,18,0.0500687650161246,1
654,749,18,0.0653772480013897,1
654,750,18,0.0632351807670418,1
654,751,18,0.0508239182615886,1
655,747,18,0.04306428869386,1
655,748,18,0.06018439279816,1
655,749,18,0.076684444443291,1
655,750,18,0.0699728536495503,1
655,751,18,0.0520106965544047,1
656,747,18,0.045358828553477,1
656,748,18,0.0587765006781776,1
656,749,18,0.0685326022216749,1
656,750,18,0.0598484561436382,1
656,751,18,0.0437355077879906,1
657,744,18,0.0430552161928334,1
657,745,18,0.0428147786954232,1
657,746,18,0.042602350787744,1
657,747,18,0.0438452834283924,1
657,748,18,0.0499632904332715,1
657,749,18,0.0537126717946735,1
657,750,18,0.0474063536227762,1
658,743,18,0.056086579818069,1
658,744,18,0.0544266040938758,1
658,745,18,0.0435524303402774,1
658,748,18,0.0437678779093532,1
658,749,18,0.0459763263304439,1
659,742,18,0.0417159247242371,1
659,743,18,0.059862189250079,1
659,744,18,0.0547043859086822,1
660,743,18,0.0446889827699905,1
653,749,19,0.0465600049811167,1
653,750,19,0.0496097981107917,1
653,751,19,0.0445084518943771,1
654,748,19,0.0562362923052129,1
654,749,19,0.0752371480399462,1
654,750,19,0.0752865818163982,1
654,751,19,0.0597199704973945,1
654,752,19,0.0471391419745413,1
655,745,19,0.0418936440977444,1
655,746,19,0.0416332908926277,1
655,747,19,0.0472825231752119,1
655,748,19,0.0693737279574991,1
655,749,19,0.0909785320619807,1
655,750,19,0.0821174559937202,1
655,751,19,0.0605649350149403,1
655,752,19,0.04890078053354,1
655,753,19,0.0431825610180302,1
656,744,19,0.0429094938759861,1
656,745,19,0.0503706933086336,1
656,746,19,0.0509476135407824,1
656,747,19,0.0524017440569387,1
656,748,19,0.0695995077968144,1
656,749,19,0.0842857134515323,1
656,750,19,0.0703940545121711,1
656,751,19,0.0501650968103984,1
656,752,19,0.0436072248943027,1
657,743,19,0.0465769659082445,1
657,744,19,0.050498768043031,1
657,745,19,0.0530726333402453,1
657,746,19,0.055076450365266,1
657,747,19,0.0516574529417266,1
657,748,19,0.0551459863817759,1
657,749,19,0.0603466110629407,1
657,750,19,0.0507819944398004,1
658,742,19,0.0495985196619588,1
658,743,19,0.0706398014231737,1
658,744,19,0.0635921766536845,1
658,745,19,0.0507024451504054,1
658,746,19,0.0502467168792292,1
658,747,19,0.0474328736570644,1
658,748,19,0.0463418810783053,1
658,749,19,0.0471121191139149,1
659,742,19,0.0526140232794105,1
659,743,19,0.0751163453638806,1
659,744,19,0.0625211078927342,1
660,743,19,0.0497546769770072,1
660,744,19,0.0414613702422139,1
645,718,20,0.0430908033214134,1
653,748,20,0.0418034381340208,1
653,749,20,0.0541187986806183,1
653,750,20,0.0601021617682947,1
653,751,20,0.0534487636614131,1
653,752,20,0.0453605046412709,1
654,744,20,0.0511077231789836,1
654,745,20,0.0496263210923992,1
654,746,20,0.0410013057697127,1
654,747,20,0.0454114144563286,1
654,748,20,0.0686334810799317,1
654,749,20,0.0952086208094237,1
654,750,20,0.0936555037921973,1
654,751,20,0.0755655963667434,1
654,752,20,0.063902642180473,1
654,753,20,0.0503812959156141,1
655,743,20,0.0436051730384388,1
655,744,20,0.0628876196326587,1
655,745,20,0.0627055856847656,1
655,746,20,0.049658118099871,1
655,747,20,0.0551094098207239,1
655,748,20,0.0895421140090921,1
655,749,20,0.120560075874224,1
655,750,20,0.104413197554218,1
655,751,20,0.0810110650341961,1
655,752,20,0.0725995535594179,1
655,753,20,0.0589099983675986,1
656,743,20,0.0414452554690853,1
656,744,20,0.0588030910000184,1
656,745,20,0.0647424162325924,1
656,746,20,0.0587462013362507,1
656,747,20,0.0605451355520324,1
656,748,20,0.0851815607504617,1
656,749,20,0.105764513601052,1
656,750,20,0.0842350956001549,1
656,751,20,0.0631932515385188,1
656,752,20,0.0600639469665925,1
656,753,20,0.0524659328127123,1
657,743,20,0.0502652781998635,1
657,744,20,0.0548495945857217,1
657,745,20,0.0600900885294434,1
657,746,20,0.0643253407086387,1
657,747,20,0.0595026143509275,1
657,748,20,0.0624161199160148,1
657,749,20,0.0688124223755082,1
657,750,20,0.0547277592233057,1
657,751,20,0.0430940825060813,1
657,752,20,0.042049017436244,1
658,742,20,0.0562746314618159,1
658,743,20,0.0773453420806517,1
658,744,20,0.0653070631767015,1
658,745,20,0.0546001008074894,1
658,746,20,0.0582993671438521,1
658,747,20,0.0537811643113632,1
658,748,20,0.0513353629350767,1
658,749,20,0.0523517101329218,1
658,750,20,0.0453657599875152,1
659,742,20,0.0596484772428801,1
659,743,20,0.081766337227826,1
659,744,20,0.0623411122838679,1
659,746,20,0.0410871376849676,1
659,747,20,0.0422378368363352,1
659,748,20,0.0439216941082248,1
660,743,20,0.0485715049763155,1
644,718,21,0.0520761829265349,1
644,719,21,0.0496764469309081,1
645,717,21,0.0504744809902232,1
645,718,21,0.0493938585288474,1
645,719,21,0.0478260189727083,1
646,717,21,0.044817381908477,1
646,718,21,0.0462212730446933,1
646,719,21,0.0446198874023684,1
653,748,21,0.0445031992515003,1
653,749,21,0.0587056724520459,1
653,750,21,0.0671059595453394,1
653,751,21,0.062115202682917,1
653,752,21,0.0514067913087733,1
653,753,21,0.0413103006646304,1
654,743,21,0.0454635786338643,1
654,744,21,0.066542875147593,1
654,745,21,0.0600227314270657,1
654,746,21,0.043988797094066,1
654,747,21,0.0494901524759774,1
654,748,21,0.0739431541956651,1
654,749,21,0.101396466607963,1
654,750,21,0.101271906251198,1
654,751,21,0.0876712756269498,1
654,752,21,0.076845667868865,1
654,753,21,0.0557106873932332,1
655,743,21,0.0565364904425797,1
655,744,21,0.0887611111644576,1
655,745,21,0.0809284230924845,1
655,746,21,0.0554394693544973,1
655,747,21,0.0643124564595645,1
655,748,21,0.103804485721332,1
655,749,21,0.134967996887797,1
655,750,21,0.120583919574776,1
655,751,21,0.104065836469023,1
655,752,21,0.0972656887656788,1
655,753,21,0.0704869043692213,1
655,754,21,0.0443225791647624,1
656,743,21,0.048426864006432,1
656,744,21,0.0727449298452368,1
656,745,21,0.0732403976173341,1
656,746,21,0.0612588029212285,1
656,747,21,0.069864216126828,1
656,748,21,0.0979799941295836,1
656,749,21,0.115685450268983,1
656,750,21,0.094378513999161,1
656,751,21,0.078561511383945,1
656,752,21,0.0771385777276956,1
656,753,21,0.0603002212781919,1
656,754,21,0.0422463632571451,1
657,743,21,0.0498992422526032,1
657,744,21,0.0549007585173159,1
657,745,21,0.0616541379644742,1
657,746,21,0.0665360788819253,1
657,747,21,0.0669575879284307,1
657,748,21,0.072459021707997,1
657,749,21,0.0773323983574945,1
657,750,21,0.0614674271909625,1
657,751,21,0.0509822761177083,1
657,752,21,0.0502601850556638,1
657,753,21,0.045790248144906,1
658,742,21,0.0553802602014921,1
658,743,21,0.0720541545912651,1
658,744,21,0.0595160554936881,1
658,745,21,0.0555277343004209,1
658,746,21,0.0611678237944257,1
658,747,21,0.0599464694324408,1
658,748,21,0.0592373923811061,1
658,749,21,0.0604009000872604,1
658,750,21,0.0497418305750768,1
659,742,21,0.0584047498122133,1
659,743,21,0.0748755131748286,1
659,744,21,0.0550971419394191,1
659,746,21,0.0424492672014403,1
659,747,21,0.045446093253459,1
659,748,21,0.0469703220865463,1
659,749,21,0.0474116630363686,1
660,743,21,0.043313958190974,1
644,718,22,0.0538116474822739,1
644,719,22,0.0516766144099258,1
645,717,22,0.0522366656294387,1
645,718,22,0.0547184326057425,1
645,719,22,0.0550455346555698,1
645,720,22,0.0445447013479725,1
646,717,22,0.0486175054761573,1
646,718,22,0.0560528688264712,1
646,719,22,0.0571897699905802,1
646,720,22,0.0418010943144766,1
647,717,22,0.0421665301141721,1
647,718,22,0.0442959834361867,1
647,719,22,0.0425898936707205,1
652,750,22,0.0447285222217234,1
652,751,22,0.0448061304933183,1
653,748,22,0.0464675390022386,1
653,749,22,0.0596520673148001,1
653,750,22,0.0718696173251507,1
653,751,22,0.0707026925625907,1
653,752,22,0.0576016442356378,1
653,753,22,0.0445822376044549,1
654,743,22,0.0442578983961202,1
654,744,22,0.0685407285441082,1
654,745,22,0.0598379887050282,1
654,746,22,0.0448985586250526,1
654,747,22,0.054205355098339,1
654,748,22,0.0775746633312736,1
654,749,22,0.0978702806666322,1
654,750,22,0.103450074253933,1
654,751,22,0.0998746978392179,1
654,752,22,0.08698687491333,1
654,753,22,0.0590490866208227,1
654,754,22,0.0433754354692358,1
655,743,22,0.0606510264534666,1
655,744,22,0.100392706288777,1
655,745,22,0.0875678393831236,1
655,746,22,0.0610437878909383,1
655,747,22,0.0774656581505835,1
655,748,22,0.117449592146203,1
655,749,22,0.135078229397291,1
655,750,22,0.125855031857779,1
655,751,22,0.120896450474266,1
655,752,22,0.11223800801356,1
655,753,22,0.076377671716384,1
655,754,22,0.0490446104932006,1
656,743,22,0.0492524129392421,1
656,744,22,0.0772242961015193,1
656,745,22,0.0727743532961229,1
656,746,22,0.0634851773716123,1
656,747,22,0.0839671810763935,1
656,748,22,0.114531242146718,1
656,749,22,0.118649519618099,1
656,750,22,0.0972221212965056,1
656,751,22,0.0878906160450955,1
656,752,22,0.0861083778264355,1
656,753,22,0.0641889558228241,1
656,754,22,0.0465378265548883,1
657,743,22,0.0455356882561481,1
657,744,22,0.0515364772501468,1
657,745,22,0.0570687888922656,1
657,746,22,0.0648302810801393,1
657,747,22,0.0759975187845107,1
657,748,22,0.088989697099144,1
657,749,22,0.0883499506083961,1
657,750,22,0.0687346843422776,1
657,751,22,0.0579529576439855,1
657,752,22,0.0575683765962952,1
657,753,22,0.0491374765704553,1
658,742,22,0.0480135840103214,1
658,743,22,0.0590234370708404,1
658,744,22,0.050340626456304,1
658,745,22,0.0512775649398594,1
658,746,22,0.0593975344597162,1
658,747,22,0.0655922522182103,1
658,748,22,0.0703696863583409,1
658,749,22,0.069703592848819,1
658,750,22,0.0542297502858433,1
658,751,22,0.0466840462913389,1
658,752,22,0.0479175171460537,1
659,742,22,0.048726370081742,1
659,743,22,0.0585712556177056,1
659,744,22,0.0444091463959528,1
659,746,22,0.0418856232066401,1
659,747,22,0.0480352650169464,1
659,748,22,0.0504385153902058,1
659,749,22,0.0489868070912485,1
665,717,22,0.0428781429241369,1
666,717,22,0.0436285923103082,1
644,719,23,0.0541693354309734,1
645,718,23,0.0588471396685905,1
645,719,23,0.0611075765483353,1
645,720,23,0.0489954200198155,1
646,717,23,0.0539079089889951,1
646,718,23,0.0646099025689084,1
646,719,23,0.0687608529388026,1
646,720,23,0.0495167644247576,1
647,717,23,0.0473548869140321,1
647,718,23,0.0516520624271118,1
647,719,23,0.0516890336798056,1
652,749,23,0.0437563940045972,1
652,750,23,0.0486014366602746,1
652,751,23,0.0483915093674492,1
652,752,23,0.0426516466924581,1
653,748,23,0.0506254910937236,1
653,749,23,0.0594732233404503,1
653,750,23,0.0728081183550688,1
653,751,23,0.0755164275202975,1
653,752,23,0.0637524430871954,1
653,753,23,0.0487542039525913,1
653,754,23,0.0424884930625537,1
654,744,23,0.0648869815081883,1
654,745,23,0.0588273023585388,1
654,746,23,0.0492681573510356,1
654,747,23,0.0603985860047578,1
654,748,23,0.0798874103703942,1
654,749,23,0.0895848164006942,1
654,750,23,0.101458914395124,1
654,751,23,0.107248446039532,1
654,752,23,0.0935502779191459,1
654,753,23,0.0635443432707389,1
654,754,23,0.0482188831381416,1
655,743,23,0.0610220041563517,1
655,744,23,0.0973350247330003,1
655,745,23,0.0873634539934879,1
655,746,23,0.0688096703474852,1
655,747,23,0.0899638717653993,1
655,748,23,0.124139128868616,1
655,749,23,0.125580239967328,1
655,750,23,0.120835127287946,1
655,751,23,0.122646815991167,1
655,752,23,0.112128424312244,1
655,753,23,0.077839647404763,1
655,754,23,0.055687724990456,1
655,755,23,0.044421027695718,1
656,743,23,0.0504937289661795,1
656,744,23,0.0758442486658557,1
656,745,23,0.0718668112297796,1
656,746,23,0.0688992653501743,1
656,747,23,0.0975911309479165,1
656,748,23,0.127934613457821,1
656,749,23,0.119807544895147,1
656,750,23,0.0977840540597355,1
656,751,23,0.0902992893733785,1
656,752,23,0.0867666477906741,1
656,753,23,0.0666347247587017,1
656,754,23,0.0525352579665642,1
656,755,23,0.042488303826835,1
657,743,23,0.0431751591980627,1
657,744,23,0.0502071612072919,1
657,745,23,0.0542849422348777,1
657,746,23,0.0642694026301991,1
657,747,23,0.084790442960375,1
657,748,23,0.104364417992679,1
657,749,23,0.098236662644921,1
657,750,23,0.0753130748170123,1
657,751,23,0.0627029526049086,1
657,752,23,0.062581165903106,1
657,753,23,0.0517467722009399,1
657,754,23,0.041413474681818,1
658,743,23,0.0461680599606026,1
658,744,23,0.043932591382253,1
658,745,23,0.0474181186777428,1
658,746,23,0.0577993469010369,1
658,747,23,0.0705143111080199,1
658,748,23,0.0799882676017117,1
658,749,23,0.0750714316177375,1
658,750,23,0.0574794195883148,1
658,751,23,0.0503758891807949,1
658,752,23,0.0544973349987807,1
658,753,23,0.0451789518927768,1
659,743,23,0.0426175058654422,1
659,746,23,0.0428612414710921,1
659,747,23,0.050883776222772,1
659,748,23,0.0543654917702143,1
659,749,23,0.0495287349356473,1
665,716,23,0.0428722414730818,1
665,717,23,0.0463994790243344,1
665,718,23,0.0417102043987983,1
666,716,23,0.0451375065670201,1
666,717,23,0.0497756010407575,1
666,718,23,0.0458626551376049,1
645,718,24,0.0611368215769724,1
645,719,24,0.0635676300776052,1
645,720,24,0.052559788322439,1
646,717,24,0.0578230824668933,1
646,718,24,0.0677437650182873,1
646,719,24,0.0720052831152343,1
646,720,24,0.0536850325662777,1
647,717,24,0.0524301348214744,1
647,718,24,0.056753181560664,1
647,719,24,0.0565560790428297,1
647,741,24,0.041205450559649,1
648,718,24,0.0437939843284277,1
651,755,24,0.0470709630484711,1
652,749,24,0.044484697404949,1
652,750,24,0.0483757487354512,1
652,751,24,0.0491961017961,1
652,752,24,0.044940490556943,1
652,753,24,0.0424673797630847,1
653,748,24,0.0503183561155837,1
653,749,24,0.05557366451271,1
653,750,24,0.0669523704293302,1
653,751,24,0.0768449217394599,1
653,752,24,0.070827512442627,1
653,753,24,0.0554813823628158,1
653,754,24,0.0473905118897559,1
653,755,24,0.0447835844091222,1
653,756,24,0.0439898162635794,1
654,744,24,0.0548861873669781,1
654,747,24,0.0626858024420621,1
654,748,24,0.07516301629884,1
654,749,24,0.0792480856049622,1
654,750,24,0.092450039823846,1
654,751,24,0.109848674575725,1
654,752,24,0.101494988129838,1
654,753,24,0.0722003743277158,1
654,754,24,0.053953368815355,1
654,755,24,0.0468256865233977,1
654,756,24,0.044049266016284,1
655,743,24,0.0538969765711906,1
655,744,24,0.0775350481852533,1
655,745,24,0.0751550467717165,1
655,746,24,0.0684157248350881,1
655,747,24,0.0917340367452079,1
655,748,24,0.116803314319793,1
655,749,24,0.111966179013789,1
655,750,24,0.105872442841513,1
655,751,24,0.113301718208421,1
655,752,24,0.105440423102519,1
655,753,24,0.0786016780169169,1
655,754,24,0.0613289228650989,1
655,755,24,0.0515555305836497,1
655,756,24,0.0439678730303157,1
656,743,24,0.048832028493579,1
656,744,24,0.0649478613422526,1
656,745,24,0.0642921001029702,1
656,746,24,0.0677694037548,1
656,747,24,0.101095203343836,1
656,748,24,0.128923440375437,1
656,749,24,0.117255868837631,1
656,750,24,0.0921156116483387,1
656,751,24,0.0852832830593503,1
656,752,24,0.0803440631932245,1
656,753,24,0.0656383824796878,1
656,754,24,0.0557328874464009,1
656,755,24,0.0469038895358227,1
657,743,24,0.0413121822083475,1
657,744,24,0.0468319204886443,1
657,745,24,0.0494925152190934,1
657,746,24,0.0606144282654753,1
657,747,24,0.0886183625517608,1
657,748,24,0.110450163010892,1
657,749,24,0.10077450827477,1
657,750,24,0.0752529627392924,1
657,751,24,0.0648224575348559,1
657,752,24,0.0633101667722494,1
657,753,24,0.0520732957301415,1
657,754,24,0.0417512198891368,1
658,745,24,0.0429983427492702,1
658,746,24,0.0542091884733258,1
658,747,24,0.0718833450248567,1
658,748,24,0.0824266130906825,1
658,749,24,0.0732780933724937,1
658,750,24,0.0553744804019704,1
658,751,24,0.0516613403840616,1
658,752,24,0.0556424814334889,1
658,753,24,0.0457629982014172,1
659,746,24,0.0419130542757454,1
659,747,24,0.0502717716883814,1
659,748,24,0.053259522536006,1
659,749,24,0.0467636442413473,1
659,752,24,0.0439364409774442,1
660,713,24,0.0429728364777605,1
661,712,24,0.0423978302297378,1
661,713,24,0.0422946886529592,1
662,712,24,0.0412446304635163,1
662,713,24,0.0410287098051439,1
665,716,24,0.0448349646101091,1
665,717,24,0.0461006541976116,1
665,718,24,0.0421844101862192,1
666,716,24,0.0506187002347907,1
666,717,24,0.0537889662297073,1
666,718,24,0.0515498264784154,1
666,719,24,0.0477972659569397,1
667,715,24,0.0410744724086536,1
667,716,24,0.0432258635571972,1
667,717,24,0.0448705328151173,1
667,718,24,0.0454205302112338,1
667,719,24,0.0449222076831518,1
644,741,25,0.0486319360513898,1
645,719,25,0.0617012738786281,1
645,720,25,0.054244981057829,1
646,718,25,0.065152825252514,1
646,719,25,0.0662917917893239,1
646,720,25,0.0538309981861919,1
646,741,25,0.05276072421526,1
647,717,25,0.0570439881996499,1
647,718,25,0.0586753622966495,1
647,719,25,0.0565402751569532,1
647,720,25,0.0439884645798746,1
647,740,25,0.0466492809864514,1
647,741,25,0.0409941986167929,1
648,717,25,0.0526374668815865,1
648,718,25,0.05033566307374,1
648,719,25,0.0448765234772969,1
649,717,25,0.0492166960490264,1
649,718,25,0.0463610101060957,1
650,718,25,0.0440685869831605,1
650,755,25,0.0763815213115752,1
650,756,25,0.0703288979508648,1
651,754,25,0.0643028054379122,1
651,755,25,0.0886729867936393,1
651,756,25,0.0798229729048189,1
652,750,25,0.0460318156498934,1
652,751,25,0.0473101407766684,1
652,752,25,0.0451082128777696,1
652,753,25,0.0444064916891565,1
652,754,25,0.0568295516899853,1
652,755,25,0.0704725440815415,1
652,756,25,0.064468759756453,1
653,749,25,0.0497688750626424,1
653,750,25,0.0565630861711554,1
653,751,25,0.0698626698006697,1
653,752,25,0.0708652730786043,1
653,753,25,0.0584514045269682,1
653,754,25,0.0502580061415317,1
653,755,25,0.0505549602380071,1
653,756,25,0.0501538562087093,1
653,757,25,0.0440193586626316,1
654,744,25,0.043554730905943,1
654,745,25,0.048101908430328,1
654,747,25,0.0586287075818945,1
654,748,25,0.063797940760699,1
654,749,25,0.0652316716663825,1
654,750,25,0.0750505345876612,1
654,751,25,0.0980170627035041,1
654,752,25,0.0984753808006587,1
654,753,25,0.0755073928664146,1
654,754,25,0.0565910443969056,1
654,755,25,0.0512718229874814,1
654,756,25,0.0517225284020105,1
654,757,25,0.0468113316424527,1
655,743,25,0.043189324843289,1
655,744,25,0.0540533014950184,1
655,745,25,0.0576530244366247,1
655,746,25,0.0622040028955876,1
655,747,25,0.0804001310332997,1
655,748,25,0.0943725557773903,1
655,749,25,0.089733247491686,1
655,750,25,0.0831742563814826,1
655,751,25,0.0939506574459779,1
655,752,25,0.0914483773177699,1
655,753,25,0.0742386971343527,1
655,754,25,0.0613061713249796,1
655,755,25,0.0541532720218256,1
655,756,25,0.049999731825953,1
655,757,25,0.0433725644930468,1
656,743,25,0.0441025656081318,1
656,744,25,0.0506531519490587,1
656,745,25,0.0526921289706087,1
656,746,25,0.062082005331127,1
656,747,25,0.0898951305389079,1
656,748,25,0.109760804321443,1
656,749,25,0.099977241971799,1
656,750,25,0.0789967102830127,1
656,751,25,0.0757790542574057,1
656,752,25,0.072107000017388,1
656,753,25,0.062953251986629,1
656,754,25,0.0556833617554569,1
656,755,25,0.0474795770324327,1
657,746,25,0.055663951577456,1
657,747,25,0.0822088135919604,1
657,748,25,0.0992160277766027,1
657,749,25,0.0884049587284467,1
657,750,25,0.0676369063113205,1
657,751,25,0.0629672121759322,1
657,752,25,0.0610650147318385,1
657,753,25,0.0516977601498038,1
657,754,25,0.0419723742668143,1
658,746,25,0.0479687946190791,1
658,747,25,0.0655563298720715,1
658,748,25,0.0742739977059873,1
658,749,25,0.0645083911226778,1
658,750,25,0.0506820887938111,1
658,751,25,0.0497744872533848,1
658,752,25,0.0515872248631599,1
658,753,25,0.0439207290060596,1
659,747,25,0.045566014631749,1
659,748,25,0.0481872753663885,1
659,749,25,0.0431085374116204,1
659,752,25,0.0410687845236238,1
660,713,25,0.0449175632979421,1
661,712,25,0.0449682757671789,1
661,713,25,0.0437812298409892,1
662,712,25,0.0435639547955445,1
662,713,25,0.0424669823680755,1
663,721,25,0.0426094146867853,1
664,720,25,0.0427076091012043,1
664,721,25,0.0471742695306617,1
665,716,25,0.0445691478994576,1
665,717,25,0.0457202741828758,1
665,718,25,0.0448491410688051,1
665,719,25,0.0450250275592087,1
665,720,25,0.0443143176739587,1
665,721,25,0.0419088559461583,1
666,716,25,0.049998715359807,1
666,717,25,0.0535630620354912,1
666,718,25,0.0563597875352184,1
666,719,25,0.0557699884607303,1
666,720,25,0.0468018914834584,1
667,715,25,0.0442874218716005,1
667,716,25,0.0460442619534472,1
667,717,25,0.05065745030324,1
667,718,25,0.0560186874489442,1
667,719,25,0.0569898073100266,1
667,720,25,0.047053499295005,1
668,718,25,0.0437166328767367,1
668,719,25,0.0446083791673057,1
668,734,25,0.0644241920413383,1
668,735,25,0.0737034195737815,1
668,736,25,0.0591708300687468,1
638,731,26,0.0419322914382321,1
640,728,26,0.0424711861043974,1
644,738,26,0.0411157122784872,1
644,740,26,0.0524498802170341,1
644,741,26,0.042005041758592,1
645,720,26,0.0559984987011293,1
645,722,26,0.0435714187929625,1
645,741,26,0.0481900922752293,1
646,719,26,0.0614174635544982,1
646,720,26,0.0538332149474677,1
646,721,26,0.0443502778672412,1
646,738,26,0.0466107363739253,1
646,740,26,0.0549326744729536,1
646,741,26,0.0433502265681413,1
647,718,26,0.0600832706368364,1
647,719,26,0.0565703528227524,1
647,720,26,0.0467981554296983,1
648,717,26,0.057864898153985,1
648,718,26,0.057814237048729,1
648,719,26,0.0540682565235283,1
648,720,26,0.0434943863386258,1
649,717,26,0.0554537917950334,1
649,718,26,0.0598496834724421,1
649,719,26,0.0588368236185555,1
649,720,26,0.0470553483983132,1
649,755,26,0.0613906191161208,1
649,756,26,0.0582157033292597,1
650,717,26,0.053775368291637,1
650,718,26,0.058939832730331,1
650,719,26,0.0584294477768674,1
650,720,26,0.0463383775141425,1
650,754,26,0.0760534352360109,1
650,755,26,0.129805473466903,1
650,756,26,0.116807228795803,1
650,757,26,0.0626680196912417,1
651,717,26,0.051455127518057,1
651,718,26,0.0510164196480916,1
651,719,26,0.0467305333973145,1
651,754,26,0.090177946023831,1
651,755,26,0.151504408824587,1
651,756,26,0.133773811368278,1
651,757,26,0.0694268707540371,1
652,717,26,0.0466673124470735,1
652,751,26,0.0444926155680917,1
652,752,26,0.0425665717200779,1
652,753,26,0.0427917703354001,1
652,754,26,0.067225237522186,1
652,755,26,0.0992477653099915,1
652,756,26,0.0877205093542135,1
652,757,26,0.0524352441858785,1
653,716,26,0.0456887961727584,1
653,717,26,0.0417066954279007,1
653,746,26,0.0417937979258381,1
653,750,26,0.0499421122529847,1
653,751,26,0.0599396515398338,1
653,752,26,0.0645291800180576,1
653,753,26,0.0547627732379949,1
653,754,26,0.0494497371332039,1
653,755,26,0.0530877721977391,1
653,756,26,0.0517550390984784,1
653,757,26,0.0432484096413933,1
654,716,26,0.043361702362795,1
654,745,26,0.0415597511889842,1
654,746,26,0.0479427611909246,1
654,747,26,0.0514815880782622,1
654,750,26,0.0611033160412978,1
654,751,26,0.0806481703998657,1
654,752,26,0.0872433704131533,1
654,753,26,0.0704306148530186,1
654,754,26,0.0558002986161268,1
654,755,26,0.0536738730656109,1
654,756,26,0.0558742843753928,1
654,757,26,0.0499921515837364,1
655,745,26,0.0428676079013417,1
655,746,26,0.052634850021934,1
655,747,26,0.0644472031047288,1
655,748,26,0.0715796703570011,1
655,749,26,0.0689047099321373,1
655,750,26,0.0673046570499453,1
655,751,26,0.0783952218478455,1
655,752,26,0.0800116841702137,1
655,753,26,0.06715453905769,1
655,754,26,0.0583687247381129,1
655,755,26,0.0546776604184709,1
655,756,26,0.0536576798948273,1
655,757,26,0.0473375691424062,1
656,745,26,0.0412692473271482,1
656,746,26,0.053316314878547,1
656,747,26,0.0731407623080858,1
656,748,26,0.0854528544834851,1
656,749,26,0.0786930031747482,1
656,750,26,0.0687422808046986,1
656,751,26,0.0703552449696388,1
656,752,26,0.0683634795565301,1
656,753,26,0.0593715767258492,1
656,754,26,0.0530847065790966,1
656,755,26,0.0459902162321944,1
657,746,26,0.0504715451332163,1
657,747,26,0.0719357795391334,1
657,748,26,0.0825135209461665,1
657,749,26,0.0719183536328111,1
657,750,26,0.0597641327073978,1
657,751,26,0.060313916537489,1
657,752,26,0.0592997104066323,1
657,753,26,0.0504611263552197,1
657,754,26,0.0417029404505687,1
658,746,26,0.0424381563613868,1
658,747,26,0.0572230430366576,1
658,748,26,0.062871339954118,1
658,749,26,0.0542254248979879,1
658,750,26,0.0461692332220584,1
658,751,26,0.0472548623198768,1
658,752,26,0.0480642180819033,1
658,753,26,0.0417796485008162,1
659,748,26,0.0421942531469576,1
660,713,26,0.0462664300939033,1
660,714,26,0.0411694552225901,1
661,712,26,0.048872460056557,1
661,713,26,0.0453067968409443,1
661,714,26,0.0422674522263074,1
662,712,26,0.0469517499524424,1
662,713,26,0.0438354810181652,1
662,714,26,0.0424363964692032,1
662,715,26,0.0428665292577453,1
662,716,26,0.0418311773870107,1
663,713,26,0.0430347219645012,1
663,714,26,0.0410312617839785,1
663,721,26,0.0471859426711363,1
664,714,26,0.0422158665693973,1
664,720,26,0.0484080323490567,1
664,721,26,0.0528589105195768,1
664,722,26,0.0413695638849838,1
665,716,26,0.0429832038917764,1
665,717,26,0.0465801342548486,1
665,718,26,0.0527602862697397,1
665,719,26,0.0557114605563124,1
665,720,26,0.0516025745833116,1
665,721,26,0.0443795985901658,1
666,716,26,0.0461878377965713,1
666,717,26,0.054689441693642,1
666,718,26,0.0706605903185536,1
666,719,26,0.0744810486158889,1
666,720,26,0.0564818391670272,1
667,716,26,0.0448924895652181,1
667,717,26,0.0550552073041614,1
667,718,26,0.0714190849261358,1
667,719,26,0.0751029528817334,1
667,720,26,0.056029338716538,1
668,717,26,0.0427726250874053,1
668,718,26,0.0494983058320848,1
668,719,26,0.0510290822210382,1
668,734,26,0.0473023064179153,1
668,735,26,0.052038768321586,1
668,736,26,0.0467672775671458,1
669,734,26,0.065469438236792,1
669,735,26,0.0715325290361124,1
669,736,26,0.0589402274219728,1
637,731,27,0.0510549210067392,1
638,730,27,0.0479343699384852,1
638,731,27,0.0451472089526532,1
639,728,27,0.0472713744880147,1
640,727,27,0.0483996843504959,1
640,728,27,0.0447936301224163,1
641,727,27,0.0465965869489034,1
641,728,27,0.0427546828379077,1
642,727,27,0.0416229856560623,1
644,723,27,0.0456945705655453,1
645,722,27,0.0464792337696525,1
645,738,27,0.0420666001378761,1
645,740,27,0.0457525469830117,1
646,720,27,0.0563482765967883,1
646,721,27,0.0492928336887505,1
646,739,27,0.0421447193459114,1
647,718,27,0.0611920784068247,1
647,719,27,0.0573458516113411,1
647,720,27,0.0505978248316537,1
647,721,27,0.0418829009156587,1
648,717,27,0.0614119919388612,1
648,718,27,0.0642094311275845,1
648,719,27,0.062204949074181,1
648,720,27,0.0512136248938874,1
649,717,27,0.0605994516100261,1
649,718,27,0.0728816445418752,1
649,719,27,0.075608433926716,1
649,720,27,0.0598073757724818,1
649,755,27,0.0714883668261091,1
649,756,27,0.0707981160254149,1
650,717,27,0.0598277753829547,1
650,718,27,0.0746180282425335,1
650,719,27,0.0781811205557397,1
650,720,27,0.0607742675669356,1
650,754,27,0.0837391141882497,1
650,755,27,0.163235520309988,1
650,756,27,0.155800038011508,1
650,757,27,0.0841554652097376,1
651,717,27,0.0555036959574147,1
651,718,27,0.0611095229728702,1
651,719,27,0.0592851392562945,1
651,720,27,0.0452936071113529,1
651,748,27,0.0440994324053041,1
651,754,27,0.101325887091633,1
651,755,27,0.192615576742459,1
651,756,27,0.180781272316298,1
651,757,27,0.0957025584755672,1
652,716,27,0.0508852792950517,1
652,717,27,0.0499801972930512,1
652,718,27,0.0459177930192911,1
652,754,27,0.0678427190789485,1
652,755,27,0.112949209911678,1
652,756,27,0.105039189311586,1
652,757,27,0.0628177051447115,1
653,716,27,0.049689725871624,1
653,717,27,0.0463928071135675,1
653,751,27,0.0487934676608484,1
653,752,27,0.053033704849547,1
653,753,27,0.0481318022671434,1
653,754,27,0.0473543300203458,1
653,755,27,0.0537531844586738,1
653,756,27,0.0526922046648962,1
653,757,27,0.0443555872808337,1
654,716,27,0.0484215924399833,1
654,717,27,0.0439206046511588,1
654,747,27,0.0422877355919817,1
654,748,27,0.0430939527444456,1
654,750,27,0.0493922959824846,1
654,751,27,0.061559730967796,1
654,752,27,0.0674939900898444,1
654,753,27,0.0578447526600486,1
654,754,27,0.0505041423374413,1
654,755,27,0.0515508591647659,1
654,756,27,0.0541095639775471,1
654,757,27,0.0487143238765649,1
655,715,27,0.0477659825892758,1
655,716,27,0.0441382608714082,1
655,746,27,0.0426973633387219,1
655,747,27,0.048663089657418,1
655,748,27,0.0514227628034292,1
655,749,27,0.0511872508414393,1
655,750,27,0.0551778104229217,1
655,751,27,0.0650729083051513,1
655,752,27,0.0663305364510383,1
655,753,27,0.0562668457636762,1
655,754,27,0.0508012802629005,1
655,755,27,0.0504696635894992,1
655,756,27,0.0516151722754404,1
655,757,27,0.0462044202522618,1
656,715,27,0.0434436387256127,1
656,746,27,0.043791794600826,1
656,747,27,0.0544045500225482,1
656,748,27,0.0597135527031641,1
656,749,27,0.05756060711836,1
656,750,27,0.058853854833236,1
656,751,27,0.0649005253789105,1
656,752,27,0.0623731904415503,1
656,753,27,0.0524398453172097,1
656,754,27,0.04569024517769,1
657,715,27,0.0410295965096542,1
657,746,27,0.0431313430190879,1
657,747,27,0.0558674881097251,1
657,748,27,0.0604960802470177,1
657,749,27,0.0545966675308792,1
657,750,27,0.0516131285296787,1
657,751,27,0.0553305236478902,1
657,752,27,0.0537739895742581,1
657,753,27,0.0463708017028533,1
658,747,27,0.0456344314541513,1
658,748,27,0.0488918864547625,1
658,750,27,0.0421909523353504,1
658,751,27,0.0442154690446265,1
658,752,27,0.0438610954243712,1
660,714,27,0.0425319253633564,1
661,713,27,0.0471856777411302,1
661,714,27,0.0438367245671736,1
661,715,27,0.0417353105719313,1
662,713,27,0.0455581694595264,1
662,714,27,0.0439372573944019,1
662,715,27,0.043954899570117,1
663,713,27,0.044621752725881,1
663,714,27,0.0421517021439304,1
663,715,27,0.0415650119419633,1
663,721,27,0.0447024644632622,1
664,714,27,0.0431076588172123,1
664,715,27,0.0413287565539358,1
664,716,27,0.0411117761755388,1
664,717,27,0.0422557574588935,1
664,719,27,0.0421809201388934,1
664,720,27,0.0480245272415955,1
664,721,27,0.0510971476056772,1
665,716,27,0.041068825074135,1
665,717,27,0.0470291906152579,1
665,718,27,0.0569224556143837,1
665,719,27,0.0603325697726152,1
665,720,27,0.0503965375010695,1
665,721,27,0.0430182016862611,1
666,716,27,0.042497154651734,1
666,717,27,0.0552385334616762,1
666,718,27,0.0786232346686411,1
666,719,27,0.084326664061053,1
666,720,27,0.0580043594719117,1
667,716,27,0.0413874493637657,1
667,717,27,0.0537144019498156,1
667,718,27,0.0748438459289925,1
667,719,27,0.0799173961217015,1
667,720,27,0.0550106504025163,1
668,717,27,0.0420727611122026,1
668,718,27,0.0493889005530181,1
668,719,27,0.051439426360142,1
669,734,27,0.0443237740531575,1
669,735,27,0.0454972571850532,1
669,736,27,0.042306118490367,1
670,734,27,0.0498113665915866,1
670,735,27,0.0493247172039793,1
636,731,28,0.0601584404710278,1
637,730,28,0.0544766866785061,1
637,731,28,0.0572889511341037,1
637,732,28,0.0544991678818844,1
638,730,28,0.0490113536673277,1
638,731,28,0.0498706730658185,1
638,732,28,0.0456048403944858,1
639,728,28,0.0470356246296927,1
639,729,28,0.0427763476243283,1
640,727,28,0.0502640887182033,1
640,728,28,0.0484992872193353,1
640,729,28,0.0420641995476163,1
641,726,28,0.049592383017939,1
641,727,28,0.0490175876325742,1
641,728,28,0.0481127813740494,1
641,729,28,0.0414544442149105,1
642,726,28,0.0445398488034723,1
642,727,28,0.0422725669974464,1
643,724,28,0.0472926067356497,1
643,725,28,0.0438803515104298,1
644,722,28,0.052529342998672,1
644,723,28,0.0465012121466926,1
644,724,28,0.0413014038824854,1
645,721,28,0.0571458835240527,1
645,722,28,0.0491409585076789,1
645,723,28,0.040996707341749,1
646,720,28,0.0578685314797835,1
646,721,28,0.0535369799467233,1
646,722,28,0.043898615460649,1
647,719,28,0.0569953492132163,1
647,720,28,0.052926970497481,1
647,721,28,0.0459127971963182,1
648,718,28,0.0663716600760732,1
648,719,28,0.0654630204425616,1
648,720,28,0.0548794397619237,1
649,717,28,0.0633688568787119,1
649,718,28,0.079394629745502,1
649,719,28,0.084461989226843,1
649,720,28,0.0658204867151335,1
649,755,28,0.0675168713915992,1
649,756,28,0.0727660918053191,1
650,717,28,0.0630503028766338,1
650,718,28,0.0829035736094938,1
650,719,28,0.0892440407185092,1
650,720,28,0.0677762757147552,1
650,747,28,0.0441007002846192,1
650,748,28,0.0512212429832477,1
650,754,28,0.0755676347057702,1
650,755,28,0.155849877293072,1
650,756,28,0.164248115233869,1
650,757,28,0.0940533854075428,1
651,717,28,0.0569835409043711,1
651,718,28,0.0655984645565175,1
651,719,28,0.0657713394956269,1
651,720,28,0.0499630741638787,1
651,747,28,0.0453325788559297,1
651,748,28,0.05524769247046,1
651,749,28,0.0502716094863368,1
651,754,28,0.0937197466153191,1
651,755,28,0.188493287473841,1
651,756,28,0.195791687417715,1
651,757,28,0.111062205392426,1
651,758,28,0.0541374789494187,1
652,717,28,0.0511270090020837,1
652,718,28,0.0479161438354097,1
652,719,28,0.0415156187160225,1
652,748,28,0.0439535478864122,1
652,749,28,0.0428139893121396,1
652,754,28,0.0608987684496175,1
652,755,28,0.106530009930225,1
652,756,28,0.109138186366602,1
652,757,28,0.0691755711263751,1
653,716,28,0.0528732437735826,1
653,717,28,0.0492728720237979,1
653,752,28,0.0426698268382877,1
653,753,28,0.0412757975863817,1
653,754,28,0.0445856411440236,1
653,755,28,0.0523257848394637,1
653,756,28,0.0525841564762691,1
653,757,28,0.0451735586747946,1
654,716,28,0.0523172043513056,1
654,717,28,0.0490174524642037,1
654,751,28,0.047233532751015,1
654,752,28,0.0501785325464242,1
654,753,28,0.0463568955808983,1
654,754,28,0.0450928685643527,1
654,755,28,0.0478148702855111,1
654,756,28,0.0496868494887002,1
654,757,28,0.0460095344957035,1
655,715,28,0.0509418445547303,1
655,716,28,0.0481069204735054,1
655,717,28,0.0451991027934479,1
655,750,28,0.0463922718468204,1
655,751,28,0.0545704340535364,1
655,752,28,0.0538938082245866,1
655,753,28,0.0464494102203898,1
655,754,28,0.0434468503260953,1
655,755,28,0.0449297176378157,1
655,756,28,0.0467705162013025,1
655,757,28,0.0433006251829098,1
656,715,28,0.0463377503329035,1
656,716,28,0.0426185547719971,1
656,748,28,0.0419625231959737,1
656,749,28,0.0434786851807108,1
656,750,28,0.0505488506276614,1
656,751,28,0.0573939985849061,1
656,752,28,0.0537676204406411,1
656,753,28,0.0443992845116425,1
657,715,28,0.0431235681344178,1
657,747,28,0.0411663220197623,1
657,748,28,0.0430870104969378,1
657,749,28,0.0424939971185996,1
657,750,28,0.0452168233668179,1
657,751,28,0.0492373605895054,1
657,752,28,0.0473040257595879,1
657,753,28,0.0418976288613062,1
659,714,28,0.0425062244493933,1
660,714,28,0.0435176380017158,1
661,713,28,0.049031082842683,1
661,714,28,0.0450532885621087,1
661,715,28,0.0422080916847273,1
662,713,28,0.0474593558442089,1
662,714,28,0.0449697139586408,1
662,715,28,0.0435128233043593,1
663,714,28,0.042495016288113,1
663,715,28,0.041242905715109,1
664,717,28,0.0426236371027272,1
664,718,28,0.044433647014786,1
664,719,28,0.0457841871951737,1
664,720,28,0.0449035166008818,1
664,721,28,0.0426684886714199,1
665,716,28,0.0427798836289001,1
665,717,28,0.0491371197259573,1
665,718,28,0.0598466394807389,1
665,719,28,0.0612073308057497,1
665,720,28,0.046177348731022,1
666,716,28,0.0466250155605828,1
666,717,28,0.0589655093139874,1
666,718,28,0.079852396355705,1
666,719,28,0.0814471398243045,1
666,720,28,0.0523817499515773,1
667,717,28,0.0531470137911531,1
667,718,28,0.0695709115763556,1
667,719,28,0.0713274840248288,1
668,718,28,0.0451983215202666,1
670,734,28,0.0411320189907019,1
636,731,29,0.0649392267867464,1
636,732,29,0.0619811426930747,1
637,730,29,0.0586758705297225,1
637,731,29,0.0644912950271794,1
637,732,29,0.0616901089712264,1
637,733,29,0.051142791261021,1
638,730,29,0.0511235216581253,1
638,731,29,0.0551161790527176,1
638,732,29,0.051678252650576,1
638,733,29,0.0429497253897758,1
639,728,29,0.0483416754926206,1
639,729,29,0.0432578606138573,1
640,727,29,0.0516009309359266,1
640,728,29,0.050707570735014,1
640,729,29,0.0433378289252008,1
641,726,29,0.0488613978771169,1
641,727,29,0.0500313017505623,1
641,728,29,0.0507677639137563,1
641,729,29,0.0432852862762277,1
642,724,29,0.0532779865354136,1
642,725,29,0.0483776464993728,1
642,726,29,0.0443315624546645,1
642,727,29,0.0426793183612628,1
642,728,29,0.0412122738589908,1
643,723,29,0.0532975481019895,1
643,724,29,0.0486195113747752,1
643,725,29,0.0454166319554291,1
644,722,29,0.0541003725283544,1
644,723,29,0.0474985925187919,1
644,724,29,0.0419272253277065,1
645,721,29,0.0600483647568436,1
645,722,29,0.0516523922379358,1
645,723,29,0.0423641435684467,1
646,720,29,0.059692801654928,1
646,721,29,0.0574600580709272,1
646,722,29,0.0467822325956557,1
647,719,29,0.0583410855097171,1
647,720,29,0.0548991419036049,1
647,721,29,0.0489078038820702,1
648,718,29,0.0661201549924881,1
648,719,29,0.0652113585636667,1
648,720,29,0.0548557041960674,1
648,721,29,0.0416397086868581,1
649,717,29,0.0657161475465924,1
649,718,29,0.0777608550582427,1
649,719,29,0.0818152789914095,1
649,720,29,0.062997154673361,1
649,756,29,0.065409926306637,1
650,717,29,0.0648840943117949,1
650,718,29,0.0807791107037173,1
650,719,29,0.0859915977610754,1
650,720,29,0.0639839756923583,1
650,747,29,0.0411351251598555,1
650,748,29,0.0518499597349645,1
650,749,29,0.0431720151817653,1
650,755,29,0.115762626001792,1
650,756,29,0.134726640245467,1
650,757,29,0.0868812597553716,1
651,717,29,0.0582761181841295,1
651,718,29,0.0646888084568599,1
651,719,29,0.0645935471960803,1
651,720,29,0.0485122687896362,1
651,747,29,0.0437975230363669,1
651,748,29,0.0577504105441883,1
651,749,29,0.0488215178010905,1
651,754,29,0.0732642413178868,1
651,755,29,0.142673307694164,1
651,756,29,0.164567956038834,1
651,757,29,0.105835309386775,1
652,717,29,0.0524649974475886,1
652,718,29,0.048991246020535,1
652,719,29,0.0426744928504367,1
652,748,29,0.0422920312427955,1
652,754,29,0.0520220236638509,1
652,755,29,0.0851346735461095,1
652,756,29,0.095971835496503,1
652,757,29,0.0684601033144842,1
653,716,29,0.0555849808086866,1
653,717,29,0.0511587249085332,1
653,718,29,0.04320469619038,1
653,754,29,0.0439949067044117,1
653,755,29,0.0509062412059458,1
653,756,29,0.0522198614976206,1
653,757,29,0.0462750159887962,1
654,716,29,0.0546667550343405,1
654,717,29,0.0515996170993655,1
654,718,29,0.0424716348633874,1
654,754,29,0.0416843683164648,1
654,755,29,0.043842528697002,1
654,756,29,0.0443200109657233,1
654,757,29,0.0418022405422583,1
655,715,29,0.0533429863014102,1
655,716,29,0.0509928570977495,1
655,717,29,0.0491453055224736,1
655,718,29,0.0412830074672631,1
655,750,29,0.0410318538214412,1
655,751,29,0.0466950544034308,1
655,752,29,0.0455073083050821,1
656,715,29,0.0487829461548902,1
656,716,29,0.0456607135921074,1
656,717,29,0.043170785149594,1
656,750,29,0.0427921758405115,1
656,751,29,0.0477480106027367,1
656,752,29,0.0448677077961742,1
657,715,29,0.0455092763565563,1
657,716,29,0.0412541868673093,1
657,751,29,0.042738105788952,1
657,752,29,0.0411648108373804,1
658,715,29,0.0429435779322864,1
659,714,29,0.0441058231658604,1
659,715,29,0.0423481531502189,1
660,714,29,0.0444853786535362,1
660,715,29,0.0419426831825546,1
661,713,29,0.0490028759071312,1
661,714,29,0.0455404191491149,1
661,715,29,0.0423211275862251,1
662,714,29,0.0449603224602598,1
662,715,29,0.0421761973560288,1
664,717,29,0.0419945662098798,1
664,718,29,0.0473664573265452,1
664,719,29,0.0486357099522936,1
664,720,29,0.0418274251130462,1
665,716,29,0.04432870769868,1
665,717,29,0.0500946578691738,1
665,718,29,0.0581458266884562,1
665,719,29,0.0571310150032998,1
665,720,29,0.0429314127789432,1
666,716,29,0.052218531440855,1
666,717,29,0.0599259887209456,1
666,718,29,0.0685292121989433,1
666,719,29,0.0644220888214936,1
666,720,29,0.0443564307314655,1
667,717,29,0.0519239130538216,1
667,718,29,0.0567291324041881,1
667,719,29,0.0539095580431149,1
636,731,30,0.0665506716592024,1
636,732,30,0.0630703186089345,1
637,730,30,0.0595013275480406,1
637,731,30,0.0664512958732253,1
637,732,30,0.0638101059140423,1
637,733,30,0.0533108973302582,1
638,730,30,0.0499161004517695,1
638,731,30,0.0558545065394241,1
638,732,30,0.0540374056946499,1
638,733,30,0.0456032886615926,1
639,728,30,0.0480116808396651,1
640,727,30,0.0500343889961441,1
640,728,30,0.0486588021167064,1
640,729,30,0.0415997961704227,1
641,726,30,0.0472034388650113,1
641,727,30,0.0478346048676012,1
641,728,30,0.0481634911399188,1
641,729,30,0.0412486801078959,1
642,724,30,0.0518273217362764,1
642,725,30,0.0469785835773501,1
642,726,30,0.0427531148848102,1
642,727,30,0.0410562625257826,1
643,723,30,0.0526692152284449,1
643,724,30,0.0475217387505529,1
643,725,30,0.0441707012803235,1
644,722,30,0.0546027284806115,1
644,723,30,0.0470026165136215,1
645,721,30,0.060742227256397,1
645,722,30,0.0524613641217901,1
645,723,30,0.0423753490263595,1
645,746,30,0.0423384805016273,1
646,720,30,0.0597630892075777,1
646,721,30,0.0579696536411072,1
646,722,30,0.0472154904769233,1
647,719,30,0.0581753744942432,1
647,720,30,0.0542109835092858,1
647,721,30,0.0484154341690242,1
648,718,30,0.0638585340378179,1
648,719,30,0.060797792270134,1
648,720,30,0.0512309156318392,1
649,718,30,0.0709251580734619,1
649,719,30,0.0700444225983522,1
649,720,30,0.0543146035820959,1
650,717,30,0.0649377507481407,1
650,718,30,0.0725272655148851,1
650,719,30,0.0719600611852065,1
650,720,30,0.0534858268285988,1
650,748,30,0.0439391064977101,1
650,756,30,0.0865049834523637,1
651,717,30,0.058689371146566,1
651,718,30,0.0606224734868863,1
651,719,30,0.0571250243411202,1
651,720,30,0.0427551829608785,1
651,748,30,0.0489188174008969,1
651,749,30,0.0414125690537358,1
651,755,30,0.0867122614451277,1
651,756,30,0.10730741188947,1
651,757,30,0.0807600303365403,1
652,717,30,0.0533655756394848,1
652,718,30,0.0492480064503644,1
652,719,30,0.0420869186473266,1
652,754,30,0.042362072789011,1
652,755,30,0.0600066896448571,1
652,756,30,0.0705097802642414,1
652,757,30,0.0582551562732354,1
652,758,30,0.0478770855830757,1
653,716,30,0.0567349608643232,1
653,717,30,0.0518631737948626,1
653,718,30,0.0450025085086867,1
653,754,30,0.0416096066907522,1
653,755,30,0.0464571310377116,1
653,756,30,0.0477328014576903,1
653,757,30,0.044160712337745,1
654,716,30,0.05507453638114,1
654,717,30,0.05184261738908,1
654,718,30,0.0441696361535641,1
655,715,30,0.0547965653306149,1
655,716,30,0.0525982085800643,1
655,717,30,0.0504912580883672,1
655,718,30,0.043397216500455,1
656,715,30,0.0500704681375927,1
656,716,30,0.0475869655994118,1
656,717,30,0.0451050661581049,1
657,715,30,0.047030623399985,1
657,716,30,0.0429717443173271,1
658,714,30,0.0475971356676067,1
658,715,30,0.045011921634007,1
659,713,30,0.050269960432217,1
659,714,30,0.0467963063263901,1
659,715,30,0.0440490173064824,1
660,713,30,0.0495266425292723,1
660,714,30,0.0460578598915175,1
660,715,30,0.042312501140821,1
661,714,30,0.0460041385743539,1
661,715,30,0.0414640330591124,1
662,714,30,0.0446329068198131,1
664,718,30,0.0456756740273522,1
664,719,30,0.0465926021853417,1
665,717,30,0.0480270035261427,1
665,718,30,0.0518910238859163,1
665,719,30,0.05023861759047,1
666,717,30,0.057319088273986,1
666,718,30,0.0542858884134711,1
666,719,30,0.0476507650702785,1
637,731,31,0.0642150000644483,1
637,732,31,0.0610910643801974,1
638,730,31,0.0494217897209234,1
638,731,31,0.0546160614886757,1
638,732,31,0.0534804525341885,1
638,733,31,0.0466775365826166,1
640,727,31,0.0466884311532773,1
640,728,31,0.044040534139551,1
641,726,31,0.04540853266667,1
641,727,31,0.043631482210069,1
641,728,31,0.0420691899638545,1
642,724,31,0.0507312900806659,1
642,725,31,0.0455036155052005,1
643,723,31,0.0521923682510649,1
643,724,31,0.0462762325041305,1
643,725,31,0.0420135195187885,1
644,722,31,0.0540403848055353,1
644,723,31,0.0464700423204599,1
645,721,31,0.0591483596788382,1
645,722,31,0.051584051109821,1
645,723,31,0.0420306642749002,1
645,746,31,0.0434257694670352,1
646,720,31,0.0585593986482471,1
646,721,31,0.0554775327676245,1
646,722,31,0.045774519953317,1
646,747,31,0.0426019101388562,1
647,719,31,0.0571659208832926,1
647,720,31,0.0530156950158642,1
647,721,31,0.0467397626936509,1
648,719,31,0.0557932266069832,1
648,720,31,0.0478883910655827,1
649,718,31,0.0625820580143511,1
649,719,31,0.0571877694986971,1
649,720,31,0.0463379774157659,1
650,717,31,0.0636051528172505,1
650,718,31,0.0618975275390957,1
650,719,31,0.0562107292629876,1
650,720,31,0.0437280302737356,1
651,717,31,0.0581524066847312,1
651,718,31,0.0551415798928982,1
651,719,31,0.048705408170848,1
651,755,31,0.0505427031701719,1
651,756,31,0.0615354439149881,1
651,757,31,0.0557158454182507,1
651,758,31,0.0466060811752459,1
652,717,31,0.0538076302783032,1
652,718,31,0.0489908945827718,1
652,719,31,0.0412370880684436,1
652,755,31,0.0449167874314956,1
652,756,31,0.0512836150761221,1
652,757,31,0.0491337729571042,1
652,758,31,0.0459131648542859,1
652,759,31,0.0477771853438212,1
653,716,31,0.0560709813881156,1
653,717,31,0.0519004153842973,1
653,718,31,0.0463062561025816,1
653,755,31,0.0440062446273276,1
653,756,31,0.0452416348729032,1
653,757,31,0.0431822420206759,1
653,758,31,0.0416877502290942,1
654,716,31,0.0538148807096958,1
654,717,31,0.0509457536240046,1
654,718,31,0.0448040705273521,1
655,715,31,0.0558425089948603,1
655,716,31,0.0526641545246542,1
655,717,31,0.0499660965286427,1
655,718,31,0.0434495536935049,1
656,715,31,0.0518894721530232,1
656,716,31,0.049201005704581,1
656,717,31,0.0457869824770752,1
657,715,31,0.0490917626275589,1
657,716,31,0.0449186311280689,1
658,714,31,0.0509306634271242,1
658,715,31,0.0471229217700837,1
659,714,31,0.0489934735952805,1
659,715,31,0.0448183524173771,1
660,713,31,0.0521099263585416,1
660,714,31,0.0470677136008447,1
660,715,31,0.041923129726081,1
661,713,31,0.0501900164511802,1
661,714,31,0.0452445058490922,1
662,714,31,0.0429527666781116,1
665,718,31,0.0414996499247339,1
666,717,31,0.0470792461662141,1
666,718,31,0.0413218440434695,1
637,732,32,0.0567373182007044,1
637,733,32,0.0521922547096337,1
638,731,32,0.0498340045902746,1
638,732,32,0.049893565181043,1
638,733,32,0.0464486100236365,1
638,734,32,0.0422002005552587,1
642,724,32,0.0502319835268469,1
642,725,32,0.0443403916526243,1
643,722,32,0.0580746416178266,1
643,723,32,0.0521774024090853,1
643,724,32,0.0453362824692809,1
644,721,32,0.058660245066095,1
644,722,32,0.0531220671166973,1
644,723,32,0.0458942412824187,1
644,746,32,0.0446878581691481,1
645,720,32,0.0609337229902237,1
645,721,32,0.0572439076263249,1
645,722,32,0.0503827557340153,1
645,723,32,0.0416379812350834,1
645,746,32,0.044292355517123,1
645,747,32,0.0469845039519771,1
646,720,32,0.0580247861160586,1
646,721,32,0.053022042522542,1
646,722,32,0.044408540841653,1
646,747,32,0.0433338279414346,1
646,748,32,0.0459526394252009,1
647,719,32,0.0578191409572101,1
647,720,32,0.0528734870766494,1
647,721,32,0.0454962947862553,1
648,718,32,0.0608286322855427,1
648,719,32,0.0543158795715132,1
648,720,32,0.0468452102428299,1
649,718,32,0.0597349093057,1
649,719,32,0.052038081666264,1
649,720,32,0.0433377153837696,1
650,717,32,0.0648049451207765,1
650,718,32,0.0573393743430277,1
650,719,32,0.0494749865848096,1
651,717,32,0.0591958416240205,1
651,718,32,0.0528594890402025,1
651,719,32,0.0453483773350714,1
651,757,32,0.041542173894087,1
651,758,32,0.0412288617214161,1
652,717,32,0.054799284918229,1
652,718,32,0.0490177173942099,1
652,719,32,0.04126455968806,1
652,756,32,0.0429113646062336,1
652,757,32,0.0454339389135854,1
652,758,32,0.0448132322395033,1
652,759,32,0.0424699614789608,1
653,716,32,0.0570416146430642,1
653,717,32,0.0526848406920724,1
653,718,32,0.0473381206293578,1
653,755,32,0.0410885515461229,1
653,756,32,0.044991719369355,1
653,757,32,0.0447922919555485,1
653,758,32,0.0421818095467712,1
654,716,32,0.054145783694101,1
654,717,32,0.0511209210186773,1
654,718,32,0.0453660032905821,1
655,715,32,0.0568759468814689,1
655,716,32,0.053026827482857,1
655,717,32,0.0496620325758801,1
655,718,32,0.0426690212347996,1
656,715,32,0.0533517343983476,1
656,716,32,0.0501296610703933,1
656,717,32,0.0455777364328371,1
657,714,32,0.0569183356824515,1
657,715,32,0.0511185312418872,1
657,716,32,0.0462206674903935,1
658,714,32,0.0542169146973825,1
658,715,32,0.0487361292380907,1
658,716,32,0.0417082282372219,1
659,714,32,0.0516544576106367,1
659,715,32,0.0455584235760629,1
660,714,32,0.0485836593161891,1
660,715,32,0.0416740414529601,1
661,714,32,0.0459229618577783,1
662,714,32,0.0431143145077748,1
637,733,33,0.0535435166891198,1
638,732,33,0.0488504762727821,1
638,733,33,0.0486497782762931,1
638,734,33,0.0464742703870885,1
640,727,33,0.0429746152935161,1
641,725,33,0.0499098124191747,1
641,726,33,0.0442621643098926,1
642,723,33,0.0581886372147547,1
642,724,33,0.0499667345233513,1
642,725,33,0.0443507725834772,1
643,722,33,0.058701812043385,1
643,723,33,0.0527978360430591,1
643,724,33,0.0449659833116156,1
644,721,33,0.0590804781231831,1
644,722,33,0.0528142887371139,1
644,723,33,0.0463935424295029,1
644,746,33,0.0419208129402109,1
644,747,33,0.044090687011734,1
645,720,33,0.0624606876311295,1
645,721,33,0.0567187082194567,1
645,722,33,0.0499800188708021,1
645,723,33,0.0421188967804149,1
645,747,33,0.0446279353271468,1
645,748,33,0.0446858144233864,1
646,720,33,0.0586753298562405,1
646,721,33,0.0524958590899367,1
646,722,33,0.0441972456449184,1
646,748,33,0.0426360320423002,1
647,719,33,0.0603017567908806,1
647,720,33,0.0541563592674073,1
647,721,33,0.0463021091369753,1
648,718,33,0.0630131964555696,1
648,719,33,0.0558799073796048,1
648,720,33,0.0479214099951236,1
649,718,33,0.0607889198182956,1
649,719,33,0.0524769301113346,1
649,720,33,0.0438493303694046,1
650,717,33,0.0673771235167272,1
650,718,33,0.0572220914513294,1
650,719,33,0.0490174254305296,1
651,717,33,0.0615812659925809,1
651,718,33,0.0530758881946065,1
651,719,33,0.0454607671317583,1
652,716,33,0.0623069092794016,1
652,717,33,0.0564913009529608,1
652,718,33,0.0495959893100634,1
652,719,33,0.0420702604973487,1
652,757,33,0.0442019576143133,1
652,758,33,0.0416221557222675,1
653,716,33,0.0580712299681556,1
653,717,33,0.0539541906390475,1
653,718,33,0.0480495712372781,1
653,756,33,0.0465349609854341,1
653,757,33,0.0483469146186604,1
653,758,33,0.0425110715871587,1
654,716,33,0.0542903976303103,1
654,717,33,0.0512357168123587,1
654,718,33,0.0452490907602189,1
654,756,33,0.0415186329706842,1
654,757,33,0.0412119278279624,1
655,715,33,0.0576321598469574,1
655,716,33,0.0524318163160031,1
655,717,33,0.048578814881791,1
655,718,33,0.0413864788548657,1
656,715,33,0.055081743558654,1
656,716,33,0.049769723920009,1
656,717,33,0.0441677167627033,1
657,715,33,0.0531988481578649,1
657,716,33,0.0467488351946775,1
658,714,33,0.0565754892208307,1
658,715,33,0.0499367866191877,1
658,716,33,0.042177538226264,1
659,714,33,0.0534637565370668,1
659,715,33,0.0461474008268584,1
660,714,33,0.0501972236286942,1
660,715,33,0.0425785881882135,1
661,714,33,0.0473741889573367,1
662,714,33,0.0447835600788155,1
663,714,33,0.0422888304557826,1
637,733,34,0.052864976876044,1
638,732,34,0.0443686256218502,1
638,733,34,0.0481087101027306,1
638,734,34,0.0489705057857686,1
640,727,34,0.0426460263916135,1
641,725,34,0.0491667486327665,1
641,726,34,0.0445916615432448,1
642,723,34,0.05713444827991,1
642,724,34,0.0487530793517489,1
642,725,34,0.0434342283036599,1
643,722,34,0.0580932732260135,1
643,723,34,0.0524912038912573,1
643,724,34,0.0444154884958957,1
644,721,34,0.0579194088544323,1
644,722,34,0.0518088469233992,1
644,723,34,0.0471517667003441,1
644,747,34,0.0410484065400902,1
645,720,34,0.0626128277422072,1
645,721,34,0.0556065212402063,1
645,722,34,0.0495646572817861,1
645,723,34,0.0438345213227347,1
645,747,34,0.0413278428157514,1
645,748,34,0.0413804963027882,1
646,720,34,0.058228674086091,1
646,721,34,0.0516814209971801,1
646,722,34,0.0444935184928065,1
647,719,34,0.0607825506846786,1
647,720,34,0.0539389328333877,1
647,721,34,0.0469237592862833,1
648,719,34,0.0561002426369571,1
648,720,34,0.0483292021553927,1
649,718,34,0.0601410470051144,1
649,719,34,0.0524969404369005,1
649,720,34,0.0444567770263426,1
650,717,34,0.0678900063816772,1
650,718,34,0.0561000479945036,1
650,719,34,0.0489098800682408,1
650,720,34,0.0414075164600472,1
651,717,34,0.0623729201048093,1
651,718,34,0.052014962468177,1
651,719,34,0.0456282137091092,1
652,717,34,0.0574910332547064,1
652,718,34,0.0491360491924631,1
652,719,34,0.0427793591756226,1
652,757,34,0.0431325595344222,1
653,716,34,0.0599955139239858,1
653,717,34,0.0551561402297663,1
653,718,34,0.0482127519008566,1
653,756,34,0.0460035005796452,1
653,757,34,0.0505491534048112,1
653,758,34,0.0449703843937584,1
654,716,34,0.055444292161956,1
654,717,34,0.0514738726676752,1
654,718,34,0.0451416210922175,1
654,756,34,0.0411299103641224,1
654,757,34,0.0428601222769845,1
655,715,34,0.0591186929248852,1
655,716,34,0.0527590048735875,1
655,717,34,0.0476753657137059,1
656,715,34,0.0571422772319282,1
656,716,34,0.0497351748845143,1
656,717,34,0.0430172122537892,1
657,715,34,0.0550305525933858,1
657,716,34,0.0470928495110192,1
658,714,34,0.058346292195348,1
658,715,34,0.0505316247705274,1
658,716,34,0.0423298810898974,1
659,714,34,0.054816959534353,1
659,715,34,0.0465289000357018,1
660,714,34,0.0513997355198342,1
660,715,34,0.0434541656383057,1
661,714,34,0.0487058353028987,1
661,715,34,0.0418165683895292,1
662,714,34,0.0465335336074418,1
663,714,34,0.0440899787294727,1
638,733,35,0.0475057888828362,1
639,734,35,0.0425374050890956,1
640,727,35,0.041245373889554,1
641,724,35,0.0530037785723227,1
641,725,35,0.0467726356413516,1
641,726,35,0.0428668050012211,1
642,723,35,0.056180932747399,1
642,724,35,0.0478651799530038,1
642,725,35,0.0420611528525457,1
643,722,35,0.0581117966995041,1
643,723,35,0.052593012707903,1
643,724,35,0.0448662425710382,1
644,721,35,0.058712041585663,1
644,722,35,0.0525086676447234,1
644,723,35,0.0487353885154205,1
644,724,35,0.041350702490567,1
645,720,35,0.0631784857457276,1
645,721,35,0.0560189523789503,1
645,722,35,0.0499655450416911,1
645,723,35,0.045510719954753,1
646,720,35,0.0583624042651093,1
646,721,35,0.0519243888464857,1
646,722,35,0.0452323974664646,1
647,719,35,0.0607426489817129,1
647,720,35,0.0542979292119135,1
647,721,35,0.0480391200188725,1
648,719,35,0.0562900730964595,1
648,720,35,0.049357622592089,1
648,721,35,0.0426295385537823,1
649,718,35,0.060724790536605,1
649,719,35,0.053360904220601,1
649,720,35,0.0460538480942817,1
650,718,35,0.056403311750513,1
650,719,35,0.0497714108212726,1
650,720,35,0.0429144113013042,1
651,717,35,0.0626293020632014,1
651,718,35,0.0523469738332201,1
651,719,35,0.0467939057361304,1
652,717,35,0.0584709336531352,1
652,718,35,0.0496387565824834,1
652,719,35,0.0438542991587034,1
652,757,35,0.0424948405692314,1
652,758,35,0.0414108821524722,1
653,716,35,0.0617354606628899,1
653,717,35,0.0563936120682474,1
653,718,35,0.0486812887268195,1
653,719,35,0.0414627759932669,1
653,756,35,0.0446746387025151,1
653,757,35,0.0505040071690708,1
653,758,35,0.0488602678695397,1
654,716,35,0.0571886021358592,1
654,717,35,0.0526229876457407,1
654,718,35,0.0456461208148304,1
654,757,35,0.0428331237466648,1
654,758,35,0.0410977754357244,1
655,716,35,0.0542559351025727,1
655,717,35,0.0483595934118114,1
655,718,35,0.0413061969529027,1
656,715,35,0.0608651601859813,1
656,716,35,0.0515402349308461,1
656,717,35,0.0442479986646663,1
657,715,35,0.0571069496266195,1
657,716,35,0.0480326914111725,1
658,715,35,0.0510990561830684,1
658,716,35,0.042986877768086,1
659,714,35,0.0551108209785117,1
659,715,35,0.0469638394114981,1
660,714,35,0.0515578122257434,1
660,715,35,0.044373026703993,1
661,714,35,0.0489775129140943,1
661,715,35,0.0430009542021878,1
662,714,35,0.0470969153756033,1
662,715,35,0.0417677212438051,1
664,714,35,0.0431039470937589,1
641,725,36,0.0448511334505859,1
641,739,36,0.0420187586448283,1
642,723,36,0.0562304205911992,1
642,724,36,0.047771897557168,1
642,725,36,0.0413387130561054,1
642,739,36,0.0432077212585114,1
643,722,36,0.0576672874030778,1
643,723,36,0.0526034855532478,1
643,724,36,0.045459101857434,1
644,721,36,0.0578088789745232,1
644,722,36,0.0523777003071977,1
644,723,36,0.0491669540886897,1
644,724,36,0.0423775684910028,1
645,721,36,0.0545578147344683,1
645,722,36,0.0490140408145328,1
645,723,36,0.0452959914814081,1
646,720,36,0.0577561957504448,1
646,721,36,0.0511821955443834,1
646,722,36,0.0451734045828522,1
647,720,36,0.0537669716324628,1
647,721,36,0.048053669542271,1
647,722,36,0.0410597093192298,1
648,719,36,0.0558585237433948,1
648,720,36,0.049922155994767,1
648,721,36,0.0442521753673141,1
649,719,36,0.0535141040517033,1
649,720,36,0.0468389762775833,1
650,718,36,0.0569858117329952,1
650,719,36,0.050100243026242,1
650,720,36,0.0434770820838369,1
651,718,36,0.0528279623694717,1
651,719,36,0.0470032382881257,1
652,717,36,0.0586539678469699,1
652,718,36,0.0498077278590533,1
652,719,36,0.0441407047155465,1
652,758,36,0.0413455255419776,1
653,717,36,0.0565211947897762,1
653,718,36,0.0485021744157288,1
653,719,36,0.0418749854558833,1
653,757,36,0.0490764723814902,1
653,758,36,0.0508535796088067,1
653,759,36,0.0419269468808633,1
654,716,36,0.0570964767812747,1
654,717,36,0.0522394230641965,1
654,718,36,0.0453001060066056,1
654,758,36,0.0439542832023476,1
655,716,36,0.0536778145752941,1
655,717,36,0.0479201285989714,1
655,718,36,0.0415638684175491,1
656,716,36,0.051280208833186,1
656,717,36,0.0446131560175185,1
657,715,36,0.0571868125066341,1
657,716,36,0.0474067969750314,1
657,717,36,0.0411626129996764,1
658,715,36,0.0501985536854597,1
658,716,36,0.0424339445149627,1
659,715,36,0.0463731482257648,1
660,715,36,0.0442523105356846,1
661,715,36,0.0429942795880535,1
662,715,36,0.0416341370466269,1
639,734,37,0.0411912227369722,1
641,725,37,0.0431917389503858,1
641,739,37,0.0436721327458073,1
642,723,37,0.0558753981627656,1
642,724,37,0.0480528693455178,1
642,725,37,0.0414131394642592,1
642,739,37,0.0458168168398076,1
642,740,37,0.0416090470936984,1
643,722,37,0.0574896383171231,1
643,723,37,0.0524069777762437,1
643,724,37,0.0463381396178105,1
644,721,37,0.0575210784800968,1
644,722,37,0.0525135607397348,1
644,723,37,0.0489037596444254,1
644,724,37,0.0434117768373231,1
645,721,37,0.0538350802709804,1
645,722,37,0.0487975443389021,1
645,723,37,0.0449436210564033,1
646,720,37,0.0567949053332638,1
646,721,37,0.0504927125000335,1
646,722,37,0.0450279715263178,1
647,720,37,0.0527469586684103,1
647,721,37,0.0475835647632105,1
647,722,37,0.0414086086204807,1
648,719,37,0.0541001075983483,1
648,720,37,0.0491327997448367,1
648,721,37,0.0445776202529193,1
649,719,37,0.0520485328846695,1
649,720,37,0.0464956486165636,1
649,721,37,0.0418942253217375,1
649,752,37,0.0423747002181812,1
650,718,37,0.0566937345113268,1
650,719,37,0.0494698231530572,1
650,720,37,0.0433455578526249,1
650,752,37,0.0410873350307885,1
651,718,37,0.0533533726389979,1
651,719,37,0.0469753449431934,1
651,720,37,0.0411161096734964,1
652,718,37,0.0502313563456078,1
652,719,37,0.0442931313835696,1
653,717,37,0.0558947380532139,1
653,718,37,0.0481229460355095,1
653,719,37,0.041922291682184,1
653,758,37,0.0470507256400428,1
654,717,37,0.0517566719323938,1
654,718,37,0.0449334807252499,1
655,716,37,0.0542378441678676,1
655,717,37,0.048446571554848,1
655,718,37,0.0424334633155638,1
656,716,37,0.0521184473726167,1
656,717,37,0.0464334225055294,1
657,716,37,0.0483081483300067,1
657,717,37,0.0434203573254812,1
658,715,37,0.0510119699053354,1
658,716,37,0.0439747449902709,1
659,715,37,0.0476341393607094,1
659,716,37,0.0409926522906346,1
660,715,37,0.0457121100132988,1
661,715,37,0.0437950629720242,1
662,715,37,0.0418931520848759,1
641,725,38,0.0421472848415831,1
641,739,38,0.0437848577600529,1
642,724,38,0.0488089363291662,1
642,725,38,0.0423627053769848,1
642,739,38,0.0444062186490482,1
643,723,38,0.0529510358741613,1
643,724,38,0.0484252041388425,1
643,725,38,0.0426347614596177,1
644,722,38,0.0537145317114513,1
644,723,38,0.0495609158212912,1
644,724,38,0.045707649457073,1
645,721,38,0.0546723401914088,1
645,722,38,0.0501827065457046,1
645,723,38,0.04606586185905,1
645,724,38,0.0414903584509471,1
646,720,38,0.0561273465986058,1
646,721,38,0.0507295869591978,1
646,722,38,0.0460195748022627,1
646,723,38,0.0416508573740553,1
647,720,38,0.0524250416772747,1
647,721,38,0.0476529115440017,1
647,722,38,0.0423505834775201,1
648,720,38,0.0483204810921293,1
648,721,38,0.044541846591988,1
648,752,38,0.0420141494033949,1
649,719,38,0.0512757536836949,1
649,720,38,0.0458352375853367,1
649,721,38,0.0422427380414488,1
649,752,38,0.0466506597038303,1
649,753,38,0.0439469543733002,1
650,719,38,0.0487779070780387,1
650,720,38,0.0428519040400593,1
650,752,38,0.0433846917992463,1
650,753,38,0.0414871955110779,1
651,718,38,0.0534730453074862,1
651,719,38,0.0463294131478123,1
652,718,38,0.050173752992844,1
652,719,38,0.0433173887642168,1
653,718,38,0.0472969159033006,1
653,719,38,0.0411517049121786,1
654,717,38,0.0505697692846769,1
654,718,38,0.0441267796700196,1
655,717,38,0.0485778254493191,1
655,718,38,0.0426963252456366,1
656,717,38,0.0476534738444229,1
656,718,38,0.0422668926292536,1
657,716,38,0.0491583249399182,1
657,717,38,0.0450472897898268,1
658,716,38,0.0455404407760542,1
658,717,38,0.0412675279854757,1
659,716,38,0.042894306357879,1
662,715,38,0.0429366843453919,1
669,724,38,0.0440476872497168,1
670,724,38,0.0426533038566802,1
639,733,39,0.0415945894847918,1
641,738,39,0.0413734675475233,1
641,739,39,0.042941212485803,1
642,724,39,0.0501147330755575,1
642,725,39,0.0445538116961429,1
643,723,39,0.0544969619340781,1
643,724,39,0.0520963013867972,1
643,725,39,0.0490655399636858,1
643,726,39,0.0469692785867262,1
643,727,39,0.0453568983491465,1
643,728,39,0.0418106480149022,1
644,722,39,0.0546902364836604,1
644,723,39,0.0519713571518601,1
644,724,39,0.0513408669911227,1
644,725,39,0.0517518869720788,1
644,726,39,0.0527357721340694,1
644,727,39,0.0504621968887139,1
644,728,39,0.0437878990483887,1
645,721,39,0.0550595921660997,1
645,722,39,0.0511190989490432,1
645,723,39,0.0482472414622683,1
645,724,39,0.04706007929128,1
645,725,39,0.0477066382679002,1
645,726,39,0.0494575282380783,1
645,727,39,0.0466696427497806,1
646,720,39,0.0548937405755205,1
646,721,39,0.0509587622279796,1
646,722,39,0.0472956345071484,1
646,723,39,0.0440785678156367,1
647,720,39,0.0518198225950822,1
647,721,39,0.0480156710099616,1
647,722,39,0.0439102129068362,1
648,719,39,0.051936429644928,1
648,720,39,0.0476272079266712,1
648,721,39,0.0449014052709349,1
648,752,39,0.0417635283209528,1
648,753,39,0.0413899121314759,1
649,719,39,0.0500001048906555,1
649,720,39,0.0454198219289725,1
649,721,39,0.0428831171201706,1
649,752,39,0.0460308370308911,1
649,753,39,0.0434567797945908,1
650,719,39,0.0482851318598813,1
650,720,39,0.0433581474346514,1
650,752,39,0.0430156199703849,1
650,753,39,0.041338723869575,1
651,718,39,0.0538130261996528,1
651,719,39,0.0466221553978634,1
651,720,39,0.0415121070417574,1
652,718,39,0.0509676400865527,1
652,719,39,0.0437295657864243,1
653,718,39,0.0468670642649691,1
653,719,39,0.0410838585002998,1
654,717,39,0.049694840642763,1
654,718,39,0.0437452534275022,1
655,717,39,0.0481505420100268,1
655,718,39,0.0432477229860713,1
656,717,39,0.0474102356583764,1
656,718,39,0.0434852057029028,1
657,717,39,0.0454055373355801,1
657,718,39,0.042960979508302,1
658,716,39,0.046060298328921,1
658,717,39,0.0420382472204841,1
659,716,39,0.0436933622900749,1
669,724,39,0.045754720490409,1
670,724,39,0.0427971067826666,1
639,732,40,0.0425105795742901,1
639,733,40,0.0429510094892954,1
640,738,40,0.0416758283788178,1
640,739,40,0.0410394340636578,1
641,726,40,0.0420699928639751,1
641,738,40,0.0416167435807135,1
641,739,40,0.0414133124797734,1
642,725,40,0.0538102579514254,1
642,726,40,0.0541012051655166,1
642,727,40,0.0517670853036556,1
642,728,40,0.0454735702798102,1
643,723,40,0.0565498829247269,1
643,724,40,0.06220737129138,1
643,725,40,0.07206611969542,1
643,726,40,0.0801999304564141,1
643,727,40,0.0781847701017426,1
643,728,40,0.0635983943987265,1
643,729,40,0.0441500042994355,1
644,722,40,0.0550784724840884,1
644,723,40,0.0558154266601509,1
644,724,40,0.0676163390920682,1
644,725,40,0.0882419673005869,1
644,726,40,0.10532677353662,1
644,727,40,0.103066012252786,1
644,728,40,0.0792946916591037,1
644,729,40,0.0470865939188334,1
645,721,40,0.0550879288632872,1
645,722,40,0.0517756657918137,1
645,723,40,0.0520425097820809,1
645,724,40,0.063031903758044,1
645,725,40,0.08410455539468,1
645,726,40,0.101468203165544,1
645,727,40,0.097033015339469,1
645,728,40,0.071291291341949,1
646,720,40,0.053320261794965,1
646,721,40,0.0510905351689933,1
646,722,40,0.0488184413689783,1
646,723,40,0.0475011120572176,1
646,724,40,0.0508023453896599,1
646,725,40,0.0600204443782372,1
646,726,40,0.067523040476028,1
646,727,40,0.0616497422890662,1
646,728,40,0.0443254988015648,1
647,720,40,0.0506011121264238,1
647,721,40,0.0486408517571066,1
647,722,40,0.0465212008453192,1
647,723,40,0.0427499249112668,1
648,719,40,0.0510092935715999,1
648,720,40,0.0469969394420613,1
648,721,40,0.045844466881673,1
648,722,40,0.0437006127214674,1
648,753,40,0.0417765180013559,1
649,719,40,0.049469920474284,1
649,720,40,0.0454725754406035,1
649,721,40,0.0440670758007785,1
649,722,40,0.0410775326205613,1
649,752,40,0.0424832377163094,1
649,753,40,0.04156593379025,1
650,719,40,0.0479238808729359,1
650,720,40,0.0439818169994144,1
650,721,40,0.042192982564275,1
651,718,40,0.0529710083525835,1
651,719,40,0.0461439134829001,1
651,720,40,0.0419880321708507,1
652,718,40,0.0506364181047932,1
652,719,40,0.0433230982761859,1
653,718,40,0.0464539086237593,1
654,718,40,0.043709777136986,1
655,717,40,0.048307061576308,1
655,718,40,0.0435885878793809,1
656,717,40,0.0466734436843585,1
656,718,40,0.0434429304433514,1
657,717,40,0.0445015988579938,1
657,718,40,0.0430632668209792,1
658,716,40,0.0456484727444768,1
658,717,40,0.0412439924688077,1
659,716,40,0.0437221693731916,1
660,716,40,0.0411123141456533,1
669,723,40,0.0412152151227324,1
669,724,40,0.0426484945660585,1
639,729,41,0.0432533946508966,1
639,730,41,0.0429754506340456,1
639,731,41,0.0426503734064082,1
639,732,41,0.0442181129379531,1
639,733,41,0.0446057298672443,1
639,734,41,0.0443975354329285,1
640,728,41,0.0434485453374611,1
640,729,41,0.0434526193121474,1
640,730,41,0.0415468966769516,1
640,736,41,0.041209516424233,1
640,737,41,0.0418157465658367,1
640,738,41,0.0428124267657769,1
641,727,41,0.0441119354795735,1
641,728,41,0.04240965205542,1
641,729,41,0.0412951428835648,1
641,738,41,0.0421123330043443,1
642,725,41,0.0653404335440057,1
642,726,41,0.07082846943469,1
642,727,41,0.0661655445312953,1
642,728,41,0.052636796446469,1
642,729,41,0.0420119407522213,1
643,724,41,0.074190090588328,1
643,725,41,0.102410218573094,1
643,726,41,0.124209665131067,1
643,727,41,0.118389455673295,1
643,728,41,0.0854211710174445,1
643,729,41,0.050959108259008,1
644,722,41,0.0548541794968484,1
644,723,41,0.0599163376992933,1
644,724,41,0.0866323390910301,1
644,725,41,0.134109861564232,1
644,726,41,0.170917127990908,1
644,727,41,0.165069528014542,1
644,728,41,0.115605430593659,1
644,729,41,0.0586880627167398,1
645,721,41,0.0557158129778418,1
645,722,41,0.0529130968159349,1
645,723,41,0.0571645962332619,1
645,724,41,0.083286721872457,1
645,725,41,0.131212284239922,1
645,726,41,0.16616505143708,1
645,727,41,0.155864561984841,1
645,728,41,0.104688768014483,1
645,729,41,0.0500953769649048,1
646,721,41,0.0525489586325961,1
646,722,41,0.0511734636676503,1
646,723,41,0.0522260305820493,1
646,724,41,0.0648441331347461,1
646,725,41,0.0923961130507592,1
646,726,41,0.110242652528531,1
646,727,41,0.097366254033316,1
646,728,41,0.0626060260698047,1
647,720,41,0.0498236506930958,1
647,721,41,0.0505249312328212,1
647,722,41,0.0497738600721457,1
647,723,41,0.0473296320556916,1
647,724,41,0.0454849352364002,1
647,725,41,0.0498050623387874,1
647,726,41,0.0525015523817013,1
647,727,41,0.0442961997055795,1
648,719,41,0.0502141629288827,1
648,720,41,0.0464817154609345,1
648,721,41,0.046980200191061,1
648,722,41,0.0459041734542816,1
648,723,41,0.041976345513539,1
649,719,41,0.0497265889896214,1
649,720,41,0.0460023381316591,1
649,721,41,0.0451398828269732,1
649,722,41,0.042300779339733,1
650,719,41,0.0483332950536508,1
650,720,41,0.0449274441058242,1
650,721,41,0.0431701417481505,1
651,718,41,0.0518253969386808,1
651,719,41,0.0463232062162398,1
651,720,41,0.0428696949009819,1
652,718,41,0.0495045830512099,1
652,719,41,0.043368896023472,1
653,718,41,0.0463471364245496,1
653,719,41,0.0412262773021725,1
654,718,41,0.0440777919491902,1
655,717,41,0.0483987435786373,1
655,718,41,0.0432961078559684,1
656,717,41,0.0456812970315642,1
656,718,41,0.0422189348914072,1
657,717,41,0.0434300705245839,1
657,718,41,0.0413450362324764,1
659,716,41,0.0433298756182818,1
659,756,41,0.0411325380372445,1
660,716,41,0.0412267909419804,1
639,730,42,0.0477309685745866,1
639,731,42,0.0451941934782321,1
639,732,42,0.0444562552764325,1
639,733,42,0.0445558338149653,1
639,734,42,0.0454186216338426,1
640,728,42,0.048177180992481,1
640,729,42,0.0494321760585111,1
640,730,42,0.046288986991569,1
640,731,42,0.0418980776202962,1
640,733,42,0.0410759998112401,1
640,738,42,0.0425173623231208,1
641,727,42,0.0468836737543337,1
641,728,42,0.0465006119991277,1
641,729,42,0.0460149844844012,1
641,730,42,0.0416960225333676,1
641,738,42,0.0423824480691771,1
642,725,42,0.0730338657539752,1
642,726,42,0.0829640587519163,1
642,727,42,0.0757995998497187,1
642,728,42,0.0569369240367599,1
642,729,42,0.0439695788551512,1
643,724,42,0.0825944543596752,1
643,725,42,0.12741429092576,1
643,726,42,0.160678361823366,1
643,727,42,0.149193137824072,1
643,728,42,0.0989181491284733,1
643,729,42,0.0533659054503088,1
644,723,42,0.0610856792723175,1
644,724,42,0.103521097122518,1
644,725,42,0.175737870076941,1
644,726,42,0.227277699502676,1
644,727,42,0.213240129010748,1
644,728,42,0.139254391371647,1
644,729,42,0.0639787852269319,1
645,722,42,0.0524501343335706,1
645,723,42,0.060322469991973,1
645,724,42,0.105431404668841,1
645,725,42,0.180805786451968,1
645,726,42,0.228019698162324,1
645,727,42,0.204683538620566,1
645,728,42,0.128377230397061,1
645,729,42,0.0559122450605585,1
646,721,42,0.052797717094893,1
646,722,42,0.0522455813351555,1
646,723,42,0.055464540383854,1
646,724,42,0.0822143609018849,1
646,725,42,0.132037060009653,1
646,726,42,0.158734035101561,1
646,727,42,0.13304825999595,1
646,728,42,0.0790415807752773,1
647,720,42,0.048901261732939,1
647,721,42,0.0512910385230288,1
647,722,42,0.0516352258548848,1
647,723,42,0.0501739476352975,1
647,724,42,0.0529976797754466,1
647,725,42,0.0662325772295839,1
647,726,42,0.0726386226252215,1
647,727,42,0.058369589815684,1
648,719,42,0.0491907545353638,1
648,720,42,0.0461774676791881,1
648,721,42,0.0476293814340685,1
648,722,42,0.047498170793476,1
648,723,42,0.0452164097516042,1
649,719,42,0.0493146390502763,1
649,720,42,0.0461825986705315,1
649,721,42,0.0455306167388877,1
649,722,42,0.0431393125462114,1
650,719,42,0.0481576086124355,1
650,720,42,0.0450219727540359,1
650,721,42,0.0429118079584887,1
651,718,42,0.0502922415864069,1
651,719,42,0.0460634450485858,1
651,720,42,0.0428967610154869,1
652,718,42,0.0477547528010563,1
652,719,42,0.0431199375119867,1
653,718,42,0.0456802048711307,1
653,719,42,0.0412193161310928,1
654,718,42,0.0434117011430356,1
655,717,42,0.0474811936461437,1
655,718,42,0.041776366612781,1
656,717,42,0.0448137702096178,1
657,717,42,0.0430258657328673,1
639,731,43,0.0481881674776336,1
639,732,43,0.0455211711731585,1
639,733,43,0.0454593235335616,1
639,734,43,0.0475149046377414,1
639,735,43,0.0504204623026445,1
640,729,43,0.0546268641448444,1
640,730,43,0.0520471595740254,1
640,731,43,0.0462510425266078,1
640,732,43,0.0426145700084354,1
640,733,43,0.0420894327790176,1
640,734,43,0.0421918552600652,1
640,735,43,0.0420824148372222,1
640,736,43,0.0414057917116399,1
641,728,43,0.051093806243559,1
641,729,43,0.0524093999934427,1
641,730,43,0.0478793672251694,1
641,731,43,0.0410121651965971,1
641,738,43,0.0431258903270227,1
641,739,43,0.0418368030945901,1
641,740,43,0.0410045984712176,1
641,741,43,0.0415913211135936,1
642,726,43,0.084168225103911,1
642,727,43,0.0776979476986212,1
642,728,43,0.0594145386407226,1
642,729,43,0.0480960583432536,1
642,730,43,0.0417499682300262,1
642,738,43,0.0430517099253031,1
642,739,43,0.0411172802315847,1
643,725,43,0.131955775158381,1
643,726,43,0.167637262074472,1
643,727,43,0.15335938384677,1
643,728,43,0.0973575600037268,1
643,729,43,0.0537420465849462,1
644,723,43,0.0613322480070127,1
644,724,43,0.107850864433088,1
644,725,43,0.18959924589458,1
644,726,43,0.242573330679275,1
644,727,43,0.220625469250515,1
644,728,43,0.135891942987582,1
644,729,43,0.0627434057948259,1
645,722,43,0.0518715109799538,1
645,723,43,0.063016532410953,1
645,724,43,0.11611347983768,1
645,725,43,0.20468792888924,1
645,726,43,0.251892292305905,1
645,727,43,0.217433679044283,1
645,728,43,0.128954766996979,1
645,729,43,0.0565985651650391,1
646,721,43,0.0523244223422892,1
646,722,43,0.0522618015396132,1
646,723,43,0.0588470585675682,1
646,724,43,0.094708854683145,1
646,725,43,0.158219303133302,1
646,726,43,0.186813436592453,1
646,727,43,0.151800741146558,1
646,728,43,0.0867908753693989,1
647,720,43,0.04843709354871,1
647,721,43,0.0511317290815809,1
647,722,43,0.0521001996426019,1
647,723,43,0.0521828037371697,1
647,724,43,0.0595773029857201,1
647,725,43,0.0796776236526741,1
647,726,43,0.0877926351967018,1
647,727,43,0.0694495465998688,1
647,728,43,0.0418250461497257,1
648,719,43,0.0489141081348694,1
648,720,43,0.0464471718321746,1
648,721,43,0.0484666900151103,1
648,722,43,0.0492656053722009,1
648,723,43,0.0481232055587809,1
648,724,43,0.0430675868020998,1
649,719,43,0.0495962380198651,1
649,720,43,0.0468741903414608,1
649,721,43,0.0468799485140433,1
649,722,43,0.0453961133967902,1
649,723,43,0.0423723131447585,1
650,718,43,0.0523759971857296,1
650,719,43,0.0483729318266104,1
650,720,43,0.045354789722567,1
650,721,43,0.0434284647243426,1
651,718,43,0.0503757648258941,1
651,719,43,0.0465333119313142,1
651,720,43,0.0430919873963388,1
652,718,43,0.0472324297771119,1
652,719,43,0.0432936937488716,1
653,718,43,0.0455109686645547,1
653,719,43,0.0414535277733587,1
654,718,43,0.0427541043172821,1
655,717,43,0.0461820039297014,1
655,718,43,0.0410132897974395,1
656,717,43,0.0443040259542303,1
657,717,43,0.0426101635195577,1
639,732,44,0.0466042915460208,1
639,733,44,0.0458479542256314,1
639,734,44,0.0481684707426873,1
639,735,44,0.0511579571521889,1
640,729,44,0.0560274139189424,1
640,730,44,0.0557741570532759,1
640,731,44,0.0499510766193149,1
640,732,44,0.0435575856619275,1
640,733,44,0.0418358461025271,1
640,734,44,0.0424697154725266,1
640,735,44,0.0434076704222279,1
640,736,44,0.0429250382385913,1
641,728,44,0.0519374298908696,1
641,729,44,0.055010180016587,1
641,730,44,0.0518787073439982,1
641,731,44,0.044442108554778,1
641,738,44,0.0424350339720288,1
641,739,44,0.0417114155073978,1
642,726,44,0.0762418545377255,1
642,727,44,0.0720059535503519,1
642,728,44,0.0580150648068537,1
642,729,44,0.049886358003529,1
642,730,44,0.0440302289029856,1
642,738,44,0.0413674228179954,1
642,742,44,0.0414361505276497,1
642,743,44,0.0424219496737663,1
642,744,44,0.0418285226802145,1
643,725,44,0.117954537924438,1
643,726,44,0.148244515386572,1
643,727,44,0.132308067185731,1
643,728,44,0.0835715270357935,1
643,729,44,0.0516198058471804,1
643,743,44,0.0424315358146007,1
643,744,44,0.0416204471940647,1
644,723,44,0.0578670013738297,1
644,724,44,0.0989199333509636,1
644,725,44,0.176830527930024,1
644,726,44,0.222782237396836,1
644,727,44,0.192821573339071,1
644,728,44,0.113384235795232,1
644,729,44,0.058634433314068,1
645,722,44,0.0509375407938142,1
645,723,44,0.0621214258346939,1
645,724,44,0.110881739397631,1
645,725,44,0.196515476194493,1
645,726,44,0.237953254149323,1
645,727,44,0.19677813537201,1
645,728,44,0.11243924668353,1
645,729,44,0.0557688422329486,1
646,721,44,0.050915178538602,1
646,722,44,0.0512278932670753,1
646,723,44,0.0591574051461908,1
646,724,44,0.0948566315592236,1
646,725,44,0.157121606203367,1
646,726,44,0.182929389686909,1
646,727,44,0.145305652235183,1
646,728,44,0.0822691635660124,1
646,729,44,0.0412745945878844,1
647,720,44,0.0479356891817811,1
647,721,44,0.0492371064729689,1
647,722,44,0.0501617987021587,1
647,723,44,0.0514796524671969,1
647,724,44,0.0622294037357683,1
647,725,44,0.0842327544839782,1
647,726,44,0.0914749460126715,1
647,727,44,0.0710542979346186,1
647,728,44,0.0423383020793783,1
648,719,44,0.0489633580823376,1
648,720,44,0.0460357679730463,1
648,721,44,0.0469122970084666,1
648,722,44,0.0479136999912714,1
648,723,44,0.047120191369,1
648,724,44,0.0452752566533765,1
648,725,44,0.0432176263967002,1
649,719,44,0.0498067708669903,1
649,720,44,0.0464688041781863,1
649,721,44,0.0457543257987672,1
649,722,44,0.0451158796277433,1
649,723,44,0.0427404982691095,1
650,718,44,0.0519243996599553,1
650,719,44,0.0479649504306226,1
650,720,44,0.0445762469422752,1
650,721,44,0.0420139493542066,1
651,718,44,0.0491390337100833,1
651,719,44,0.0452350792069349,1
651,720,44,0.0416437123739917,1
652,718,44,0.0452502613183073,1
652,719,44,0.0412257231118536,1
653,718,44,0.0438711032905215,1
654,717,44,0.046406367204494,1
654,718,44,0.0411874136922921,1
655,717,44,0.04391802563865,1
656,717,44,0.0423425220359047,1
640,730,45,0.0563914331541152,1
640,731,45,0.0519854146623901,1
640,732,45,0.0458000073012547,1
640,733,45,0.0437711814243277,1
640,734,45,0.0452848022436998,1
640,735,45,0.0469147949199531,1
640,736,45,0.0474063698429806,1
641,728,45,0.0506841271328379,1
641,729,45,0.0540540205907494,1
641,730,45,0.0530502873052375,1
641,731,45,0.0465037316851183,1
641,735,45,0.0416939057966858,1
641,736,45,0.0430630262212797,1
641,737,45,0.0433222440120844,1
641,738,45,0.0433306677049328,1
642,727,45,0.0634816089266316,1
642,728,45,0.0561930059862503,1
642,729,45,0.050941195746552,1
642,730,45,0.0460523396152671,1
642,741,45,0.0421211919393456,1
642,742,45,0.0445239881468801,1
642,743,45,0.0463145121866505,1
643,725,45,0.0923656082529092,1
643,726,45,0.113327789483719,1
643,727,45,0.0991862582946882,1
643,728,45,0.0689939480903283,1
643,729,45,0.050689149989485,1
643,730,45,0.0420752563203216,1
643,742,45,0.0425223094854804,1
643,743,45,0.0444035071715363,1
643,744,45,0.0440939986368108,1
643,745,45,0.0417440100082554,1
644,724,45,0.0840797871424732,1
644,725,45,0.140486661931232,1
644,726,45,0.175236471116747,1
644,727,45,0.143765457314175,1
644,728,45,0.0874630190151836,1
644,729,45,0.0553266253920856,1
644,743,45,0.041422893213873,1
645,723,45,0.0595540702462019,1
645,724,45,0.0969525306849503,1
645,725,45,0.15874661116675,1
645,726,45,0.190916110227146,1
645,727,45,0.151286236261162,1
645,728,45,0.0901859479913634,1
645,729,45,0.0550256162444958,1
646,722,45,0.0498177086915295,1
646,723,45,0.0588285405008124,1
646,724,45,0.0878972717356579,1
646,725,45,0.131353551407278,1
646,726,45,0.149254309621817,1
646,727,45,0.116159015358328,1
646,728,45,0.0699258853441759,1
646,729,45,0.0415242911186725,1
647,721,45,0.0478728845501212,1
647,722,45,0.0482811687232588,1
647,723,45,0.0522497445209663,1
647,724,45,0.0645502068097695,1
647,725,45,0.0810100918219286,1
647,726,45,0.083288814278832,1
647,727,45,0.0637028471086988,1
648,720,45,0.0461511044402096,1
648,721,45,0.0458260407294092,1
648,722,45,0.0461346301192155,1
648,723,45,0.046181209139683,1
648,724,45,0.0466120448037515,1
648,725,45,0.0461436323326895,1
649,719,45,0.050086726189194,1
649,720,45,0.0461930877360808,1
649,721,45,0.0445630491025815,1
649,722,45,0.0439817926691077,1
649,723,45,0.0419330970417202,1
650,719,45,0.0477160513932204,1
650,720,45,0.0437853741032282,1
651,718,45,0.0477964441332472,1
651,719,45,0.0440110566213167,1
652,718,45,0.0439472490403478,1
653,718,45,0.0422002870630158,1
655,717,45,0.0422764301094747,1
640,731,46,0.0506402406663104,1
640,734,46,0.0467432446308744,1
640,735,46,0.0494549221918955,1
640,736,46,0.0500985128710999,1
641,728,46,0.0487297438842692,1
641,729,46,0.0511698844092,1
641,730,46,0.0510268059856793,1
641,731,46,0.0454105601922272,1
641,734,46,0.0418898891204125,1
641,735,46,0.0445209657821162,1
641,736,46,0.0463783440979261,1
641,737,46,0.0451832556536928,1
642,727,46,0.0548613704541579,1
642,728,46,0.0522844719787101,1
642,729,46,0.0487197252046492,1
642,730,46,0.044772554670091,1
642,741,46,0.0426669504553639,1
642,742,46,0.0450254411744224,1
643,726,46,0.0798711901659366,1
643,727,46,0.0698288777080496,1
643,728,46,0.0558677151925875,1
643,729,46,0.0467613301588447,1
643,741,46,0.0409932551415669,1
643,742,46,0.0439698870390359,1
643,743,46,0.0459673078967654,1
643,744,46,0.045255922169663,1
643,745,46,0.0423089191790033,1
643,746,46,0.0410378444836209,1
644,724,46,0.068089244559765,1
644,725,46,0.100711833404745,1
644,726,46,0.121557099401825,1
644,727,46,0.0962950933578739,1
644,728,46,0.0645222648042239,1
644,729,46,0.0488722978545125,1
644,742,46,0.0438159816290397,1
644,743,46,0.049054526444859,1
644,744,46,0.0470120080120024,1
644,745,46,0.0417416553752417,1
645,723,46,0.0555623968773468,1
645,724,46,0.0795968362210055,1
645,725,46,0.115708039607058,1
645,726,46,0.135354545986961,1
645,727,46,0.104187704271848,1
645,728,46,0.0678015792337091,1
645,729,46,0.049466033031949,1
645,743,46,0.0464726754003168,1
645,744,46,0.0458296199878595,1
646,722,46,0.0471499662576493,1
646,723,46,0.0562773943033085,1
646,724,46,0.0760165072371957,1
646,725,46,0.0997787715500555,1
646,726,46,0.107617347556247,1
646,727,46,0.0821826233684961,1
646,728,46,0.0536894066147464,1
647,721,46,0.0446498542301039,1
647,722,46,0.044931593774798,1
647,723,46,0.0507019747644761,1
647,724,46,0.0615433647814983,1
647,725,46,0.0705243892617229,1
647,726,46,0.0674520878949955,1
647,727,46,0.0507900180342721,1
648,720,46,0.044807006384359,1
648,721,46,0.0427176548144984,1
648,722,46,0.0422992519371466,1
648,723,46,0.0432904551147149,1
648,724,46,0.0444242311860983,1
648,725,46,0.0434894608032055,1
649,719,46,0.0486139099975025,1
649,720,46,0.0444952270210094,1
649,721,46,0.0414326010062409,1
650,718,46,0.0487906723789469,1
650,719,46,0.0456927484959113,1
650,720,46,0.0413954810683397,1
651,718,46,0.0449819358826996,1
654,717,46,0.042610020241085,1
640,735,47,0.0518100958791424,1
640,736,47,0.0526754762273656,1
641,729,47,0.0475129636199413,1
641,731,47,0.0425892556760118,1
641,734,47,0.0431458384751381,1
641,735,47,0.0466814456518909,1
641,736,47,0.0488476755841458,1
641,737,47,0.0480213913354003,1
642,728,47,0.047869451273511,1
642,729,47,0.0453335250345231,1
642,730,47,0.0417629470969597,1
642,740,47,0.0416235479564835,1
642,741,47,0.043334952542277,1
643,726,47,0.0579380134289452,1
643,727,47,0.0536718563535233,1
643,728,47,0.0481857182267605,1
643,729,47,0.0428954850260695,1
643,741,47,0.0412874761335912,1
643,742,47,0.0438947388317837,1
643,743,47,0.046183598916473,1
643,744,47,0.0450163659700284,1
643,745,47,0.0419171444706361,1
644,724,47,0.0548425117631085,1
644,725,47,0.0697996705265563,1
644,726,47,0.0780530079741985,1
644,727,47,0.0655072745670568,1
644,728,47,0.0510077418387068,1
644,729,47,0.0428270600935651,1
644,742,47,0.0445561176685433,1
644,743,47,0.0524090755893536,1
644,744,47,0.0503802902629377,1
644,745,47,0.0427840062641997,1
645,723,47,0.0501451675858548,1
645,724,47,0.0627295699604236,1
645,725,47,0.0796778345153321,1
645,726,47,0.0864661036222788,1
645,727,47,0.0690666957073207,1
645,728,47,0.0508485891925686,1
645,729,47,0.0413501374867784,1
645,743,47,0.0542380766574648,1
645,744,47,0.0539876745477829,1
645,745,47,0.0442607909992485,1
646,722,47,0.0437447127540203,1
646,723,47,0.0505839133029639,1
646,724,47,0.0612818950856414,1
646,725,47,0.0714111910932997,1
646,726,47,0.0710712372348072,1
646,727,47,0.0557361477074969,1
647,721,47,0.0421477444140427,1
647,722,47,0.0415373997472416,1
647,723,47,0.0461097807659864,1
647,724,47,0.052252145111226,1
647,725,47,0.0547848543429965,1
647,726,47,0.049458793414026,1
648,720,47,0.0438774210601578,1
649,719,47,0.0474110574820689,1
649,720,47,0.0424955650716972,1
650,718,47,0.046889707670392,1
650,719,47,0.0433180537925996,1
651,718,47,0.043038495865405,1
641,734,48,0.0443972110288394,1
641,735,48,0.0478439422986339,1
641,736,48,0.0494610209887716,1
642,729,48,0.042597117068439,1
642,735,48,0.041128231572961,1
642,736,48,0.0422248904098106,1
642,737,48,0.0415982417341622,1
642,738,48,0.0413281942535146,1
642,739,48,0.0411130521649561,1
643,727,48,0.0454985385812053,1
643,728,48,0.0436535795352751,1
643,742,48,0.0421348277245596,1
643,743,48,0.044116122995691,1
643,744,48,0.0433783902498145,1
644,725,48,0.0514445032841372,1
644,726,48,0.0528982715490607,1
644,727,48,0.049118525964914,1
644,728,48,0.0434529031657254,1
644,742,48,0.0428690055422925,1
644,743,48,0.0515615861266472,1
644,744,48,0.0507937108341536,1
644,745,48,0.0424093141344938,1
645,723,48,0.0452852482993224,1
645,724,48,0.0513723450012401,1
645,725,48,0.0573617474117095,1
645,726,48,0.0571255866415414,1
645,727,48,0.0490045736218644,1
645,742,48,0.0411213352826991,1
645,743,48,0.0563220431194455,1
645,744,48,0.0575531512310443,1
645,745,48,0.0455774715028309,1
646,723,48,0.0448560995365174,1
646,724,48,0.0499758773119306,1
646,725,48,0.0530943738209533,1
646,726,48,0.0497593375824213,1
646,744,48,0.0416593324308844,1
647,724,48,0.0428761883894998,1
647,725,48,0.0419711955986237,1
648,720,48,0.0421308564778349,1
649,719,48,0.0449299068735344,1
642,735,49,0.0424917587303845,1
642,736,49,0.0430762456879127,1
643,728,49,0.0411009897395745,1
643,743,49,0.0415883284858712,1
644,743,49,0.0463040717817146,1
644,744,49,0.0469775292640603,1
645,725,49,0.0423606237840794,1
645,743,49,0.0500064578040681,1
645,744,49,0.0524770220258265,1
645,745,49,0.0431917740941621,1
649,719,49,0.0434063187385231,1
644,744,50,0.0416283383235333,1
645,743,50,0.0417280412169669,1
645,744,50,0.0439817683388011,1
649,719,50,0.041321543969687,1
651,756,50,0.0442326867916583,1
667,727,52,0.0448778129835513,1
659,722,54,0.0413706263083758,1
660,721,54,0.048519302951636,1
660,722,54,0.0509140539377596,1
660,723,54,0.0425490755262029,1
661,721,54,0.0458876666928785,1
661,722,54,0.0492773109530845,1
661,723,54,0.0419568785648225,1
655,723,55,0.0463988842835043,1
655,724,55,0.0515069618847687,1
655,725,55,0.0418746313147527,1
656,723,55,0.0561927248360397,1
656,724,55,0.0661531090412112,1
656,725,55,0.0533864834830307,1
657,723,55,0.0492653134085207,1
657,724,55,0.056645279353877,1
657,725,55,0.0469901377696587,1
659,722,55,0.0463116249902571,1
660,722,55,0.0558436768495813,1
660,723,55,0.0448083445512267,1
661,722,55,0.0498166435647701,1
661,723,55,0.0409985131911786,1
655,722,56,0.0414886147789679,1
655,723,56,0.062255399316779,1
655,724,56,0.0681493187903413,1
655,725,56,0.0540987180674998,1
656,722,56,0.0444127040274638,1
656,723,56,0.0721652035177168,1
656,724,56,0.0848744041453825,1
656,725,56,0.0687308780009649,1
656,726,56,0.0443485152716902,1
657,723,56,0.055397518499035,1
657,724,56,0.0646962805643801,1
657,725,56,0.0547847299880957,1
658,723,56,0.0420723204633148,1
658,724,56,0.0417332506059652,1
659,722,56,0.0463380531100534,1
660,723,56,0.0431820149378135,1
654,723,57,0.0456616976178445,1
654,724,57,0.0477750226498935,1
654,725,57,0.0410472900493501,1
655,722,57,0.0477849169746127,1
655,723,57,0.0716100724268895,1
655,724,57,0.0804676449309871,1
655,725,57,0.0664213263421224,1
655,726,57,0.0478566048715805,1
656,722,57,0.0482292100016462,1
656,723,57,0.0735459267952328,1
656,724,57,0.0864638436071243,1
656,725,57,0.0730538328256626,1
656,726,57,0.0523331379988178,1
657,722,57,0.0425350234224078,1
657,723,57,0.054901472206312,1
657,724,57,0.0624472843355127,1
657,725,57,0.0540368379874939,1
658,722,57,0.0421782924657713,1
658,723,57,0.0419789596698241,1
654,723,58,0.042888504931418,1
654,724,58,0.0479337806043899,1
654,725,58,0.0431591795933045,1
655,722,58,0.0460666836827425,1
655,723,58,0.0637077185767709,1
655,724,58,0.0757539940415187,1
655,725,58,0.0685145761677877,1
655,726,58,0.0545668710152905,1
656,722,58,0.0468450156003764,1
656,723,58,0.0621143430120807,1
656,724,58,0.0741423274929351,1
656,725,58,0.0689764573031881,1
656,726,58,0.0569415522017652,1
656,727,58,0.0446153051946091,1
657,722,58,0.044080430435782,1
657,723,58,0.0498900399899409,1
657,724,58,0.0541457782873661,1
657,725,58,0.0490829226161295,1
657,726,58,0.0410090022567279,1
654,724,59,0.0427655665950988,1
655,723,59,0.0484295890007809,1
655,724,59,0.0580390815229206,1
655,725,59,0.057827456515362,1
655,726,59,0.0538398111639472,1
655,727,59,0.0458115074262152,1
656,723,59,0.0475254369571692,1
656,724,59,0.0556830373513678,1
656,725,59,0.0580203255598328,1
656,726,59,0.056176985830981,1
656,727,59,0.0497340935375505,1
657,723,59,0.0429065742391837,1
657,724,59,0.0449133081976394,1
657,725,59,0.0449045357703953,1
657,726,59,0.0429591682521376,1
650,743,60,0.041683749245328,1
655,725,60,0.0433688689897979,1
655,726,60,0.0463818801024979,1
655,727,60,0.0452714394985941,1
656,725,60,0.044461670121354,1
656,726,60,0.0478345237665789,1
656,727,60,0.047136876552652,1
657,726,60,0.0414354422453884,1
658,735,60,0.0504238036647627,1
658,736,60,0.0435265131569215,1
659,735,60,0.0434137448887973,1
663,732,60,0.0414205872414726,1
650,743,61,0.0416345506618406,1
