x,y,z,signal,cytoplasm.p
384,1019,8,0.0565549111881088,1
384,1020,8,0.057372858251763,1
385,1020,8,0.0648115467439908,1
390,1020,8,0.0676983538525408,1
391,1018,8,0.0617119846203049,1
391,1019,8,0.0645118135858183,1
379,1021,9,0.053054639726767,1
379,1022,9,0.0531919599777052,1
380,1020,9,0.0520652613222001,1
380,1021,9,0.0570500869965259,1
380,1022,9,0.0585769164690613,1
381,1019,9,0.0460488684915132,1
381,1020,9,0.0530801054477654,1
381,1021,9,0.0579877716094863,1
381,1022,9,0.0590335638851568,1
382,1019,9,0.048505099459266,1
382,1020,9,0.0546730592871397,1
382,1021,9,0.0576940345202284,1
382,1022,9,0.0566423110564613,1
383,1018,9,0.0508335260293623,1
383,1019,9,0.0519244050666901,1
383,1020,9,0.0564335624318265,1
383,1021,9,0.0566608237164822,1
383,1022,9,0.0527110579492108,1
384,1019,9,0.0556534084445585,1
384,1020,9,0.0570219395350571,1
384,1021,9,0.0541380466565747,1
384,1022,9,0.0487879365711284,1
385,1019,9,0.0627945535062156,1
385,1020,9,0.0620032508317505,1
385,1021,9,0.054858796848384,1
385,1022,9,0.0486095683894427,1
386,1020,9,0.07382787179585,1
386,1021,9,0.0596332572843641,1
386,1022,9,0.0496670608392619,1
387,1021,9,0.0710701234474345,1
387,1022,9,0.0529723654430231,1
388,1020,9,0.0862970782783607,1
388,1021,9,0.0673842495932189,1
388,1022,9,0.0510992129783782,1
389,1020,9,0.0757155683771586,1
389,1021,9,0.0628663873850236,1
389,1022,9,0.0505821993680262,1
390,1018,9,0.0634270874127148,1
390,1019,9,0.0668732320517815,1
390,1020,9,0.0693913052523963,1
390,1021,9,0.0612328451873615,1
390,1022,9,0.0502722366675759,1
391,1018,9,0.0630849330131508,1
391,1019,9,0.0659691070418439,1
391,1020,9,0.0685846096039009,1
391,1021,9,0.0624006296207578,1
391,1022,9,0.0517324822008127,1
392,1018,9,0.0614121811745798,1
392,1021,9,0.0641745847216747,1
392,1022,9,0.0533386392866155,1
393,1022,9,0.0580722572477713,1
393,1023,9,0.0468938221955894,1
394,1023,9,0.0490466109850837,1
395,1022,9,0.0572289471910802,1
396,1020,9,0.055966777387945,1
396,1021,9,0.0562723714466614,1
396,1022,9,0.0538556907441112,1
378,1021,10,0.047566414600364,1
378,1022,10,0.0457847224619208,1
379,1020,10,0.0518206011648962,1
379,1021,10,0.0533958966083509,1
379,1022,10,0.052048549104874,1
379,1023,10,0.0501515907868201,1
380,1019,10,0.0483884004949282,1
380,1020,10,0.0539063788830413,1
380,1021,10,0.0571538260175021,1
380,1022,10,0.0570955143824769,1
380,1023,10,0.0543023573277304,1
381,1018,10,0.0458587136279217,1
381,1019,10,0.0487896667262705,1
381,1020,10,0.0548297410554656,1
381,1021,10,0.0582511661029389,1
381,1022,10,0.058048099956599,1
381,1023,10,0.0535146987925334,1
382,1018,10,0.0475386185766585,1
382,1019,10,0.0507187194222112,1
382,1020,10,0.0558158321652623,1
382,1021,10,0.0575892898465759,1
382,1022,10,0.0554595067137373,1
382,1023,10,0.0505323492729931,1
383,1017,10,0.0511079989224594,1
383,1018,10,0.050860121757938,1
383,1019,10,0.0536008497051426,1
383,1020,10,0.0570751039585344,1
383,1021,10,0.0556458822696902,1
383,1022,10,0.0503946343304131,1
383,1023,10,0.0473504696116848,1
384,1018,10,0.0559690752502432,1
384,1019,10,0.0562521448517028,1
384,1020,10,0.056849356559628,1
384,1021,10,0.0521997538508279,1
384,1022,10,0.0454634596856983,1
384,1023,10,0.0448453644645339,1
385,1019,10,0.0607905959060896,1
385,1020,10,0.0588466260287827,1
385,1021,10,0.0514531486531132,1
385,1022,10,0.0444421869524329,1
385,1023,10,0.0431279989536022,1
386,1019,10,0.0652149432288519,1
386,1020,10,0.0635522100699009,1
386,1021,10,0.0530204961963837,1
386,1022,10,0.0447487244863753,1
386,1023,10,0.0418693002742209,1
387,1019,10,0.0725923571953735,1
387,1020,10,0.0721694964651633,1
387,1021,10,0.0583527478367221,1
387,1022,10,0.0466092333016455,1
387,1023,10,0.0423666117428917,1
388,1019,10,0.0717230948115502,1
388,1020,10,0.0703753850568404,1
388,1021,10,0.0567412272699787,1
388,1022,10,0.0454095599462856,1
388,1023,10,0.0411463873884839,1
389,1019,10,0.0697296533106475,1
389,1020,10,0.0683261730862776,1
389,1021,10,0.0560537068703682,1
389,1022,10,0.0457068979209331,1
390,1018,10,0.0640876822729256,1
390,1019,10,0.0675334322203505,1
390,1020,10,0.0675429805140412,1
390,1021,10,0.0567062132552895,1
390,1022,10,0.0458428286410228,1
391,1017,10,0.0609557067739986,1
391,1018,10,0.0634594737542818,1
391,1019,10,0.0661241127223758,1
391,1020,10,0.0667536999583984,1
391,1021,10,0.0568534386444165,1
391,1022,10,0.0456594592296294,1
392,1017,10,0.0590362023717486,1
392,1018,10,0.0617234144577127,1
392,1019,10,0.0639970978377646,1
392,1020,10,0.0651972740194627,1
392,1021,10,0.0574396260200454,1
392,1022,10,0.0455948000879265,1
393,1017,10,0.0556680606959186,1
393,1018,10,0.0585839776647352,1
393,1021,10,0.0620630601323205,1
393,1022,10,0.0492184694580471,1
394,1022,10,0.0525455577963948,1
394,1023,10,0.0420078451505957,1
395,1018,10,0.0523843235573512,1
395,1021,10,0.0587553981921782,1
395,1022,10,0.0524955238723779,1
395,1023,10,0.0445807940062581,1
396,1019,10,0.0516596805164721,1
396,1020,10,0.0532682003453909,1
396,1021,10,0.053904351357484,1
396,1022,10,0.0519375542457704,1
396,1023,10,0.0479972935183111,1
397,1021,10,0.0498007315441972,1
397,1022,10,0.0496371075283635,1
378,1020,11,0.0498186656835925,1
378,1021,11,0.0491683760599471,1
378,1022,11,0.0481308074279367,1
379,1019,11,0.0524992058587898,1
379,1020,11,0.0546435168880876,1
379,1021,11,0.0551953066167967,1
379,1022,11,0.0540517930160039,1
379,1023,11,0.0513660894090543,1
380,1018,11,0.0505767115321847,1
380,1019,11,0.0534755378122379,1
380,1020,11,0.057869445217968,1
380,1021,11,0.0592660697025872,1
380,1022,11,0.0579410303869743,1
380,1023,11,0.0539773747179523,1
381,1018,11,0.0495526921776312,1
381,1019,11,0.0533803306188064,1
381,1020,11,0.0585234168280253,1
381,1021,11,0.0598201789205337,1
381,1022,11,0.0577599426176746,1
381,1023,11,0.0519501789715733,1
382,1017,11,0.0480522529777484,1
382,1018,11,0.0504668034267799,1
382,1019,11,0.0543766080170026,1
382,1020,11,0.0584606446367743,1
382,1021,11,0.0582852285322999,1
382,1022,11,0.0545035851842317,1
382,1023,11,0.0482050851508829,1
383,1017,11,0.0504316380235158,1
383,1018,11,0.0523557165234228,1
383,1019,11,0.0557623541511656,1
383,1020,11,0.0582465595648729,1
383,1021,11,0.0547982468251437,1
383,1022,11,0.0487515546525299,1
383,1023,11,0.0441813714714892,1
384,1016,11,0.0584726692150122,1
384,1017,11,0.0562647371370967,1
384,1018,11,0.0557162292964229,1
384,1019,11,0.0571438343715562,1
384,1020,11,0.0569985662204337,1
384,1021,11,0.0505227090648105,1
384,1022,11,0.0436297763852336,1
384,1023,11,0.0413586855345275,1
385,1018,11,0.0600690401107922,1
385,1019,11,0.0595831801064686,1
385,1020,11,0.0570584458085564,1
385,1021,11,0.0487103445197379,1
385,1022,11,0.0420730260422087,1
386,1019,11,0.0621654907234704,1
386,1020,11,0.0583624691459271,1
386,1021,11,0.0487462398322026,1
386,1022,11,0.0416941220660786,1
387,1019,11,0.0651836382342487,1
387,1020,11,0.0602587137749848,1
387,1021,11,0.0499171655785288,1
387,1022,11,0.0422287751487782,1
388,1018,11,0.0681140722860549,1
388,1019,11,0.0657244901384185,1
388,1020,11,0.0590451667380788,1
388,1021,11,0.0485731269967612,1
388,1022,11,0.0411974675156884,1
389,1018,11,0.0662018561623411,1
389,1019,11,0.0655004134205712,1
389,1020,11,0.0594298505137306,1
389,1021,11,0.0482705444893391,1
390,1018,11,0.0638832265957372,1
390,1019,11,0.0662645688795091,1
390,1020,11,0.0620860874159155,1
390,1021,11,0.0495829374522099,1
391,1017,11,0.0594784570597553,1
391,1018,11,0.0631583510652608,1
391,1019,11,0.0664064416011652,1
391,1020,11,0.0635613041978668,1
391,1021,11,0.0498975877917485,1
392,1017,11,0.0583958827671098,1
392,1018,11,0.0614852477889266,1
392,1019,11,0.0648168723777877,1
392,1020,11,0.0634918222487051,1
392,1021,11,0.0512370360556546,1
393,1017,11,0.0559826677815786,1
393,1018,11,0.058423927500617,1
393,1019,11,0.0631315769144361,1
393,1020,11,0.0639997092906822,1
393,1021,11,0.0541207991725014,1
393,1022,11,0.0409881863276739,1
394,1017,11,0.0535046584859741,1
394,1018,11,0.0557343905186806,1
394,1021,11,0.055835880337972,1
394,1022,11,0.0439054820138694,1
395,1018,11,0.0536474179121405,1
395,1019,11,0.0573498201546984,1
395,1020,11,0.0581413553187608,1
395,1021,11,0.054513744438957,1
395,1022,11,0.0469929546784995,1
396,1019,11,0.0525480070472679,1
396,1020,11,0.0536027636892686,1
396,1021,11,0.0539374784217213,1
396,1022,11,0.0506989253660381,1
396,1023,11,0.0444459932937457,1
397,1020,11,0.0482317998276246,1
397,1021,11,0.0507980740691527,1
397,1022,11,0.050460818171335,1
397,1023,11,0.0484275722886933,1
398,1021,11,0.047843553013727,1
398,1022,11,0.0480341944834522,1
377,1021,12,0.0440825309522592,1
377,1022,12,0.0423932669455504,1
378,1020,12,0.0496358207254765,1
378,1021,12,0.0485887794940628,1
378,1022,12,0.047802461829101,1
378,1023,12,0.0460288851996214,1
379,1019,12,0.0545275370194808,1
379,1020,12,0.0550640419088559,1
379,1021,12,0.053984349405869,1
379,1022,12,0.0527748574200774,1
379,1023,12,0.0497674098375064,1
380,1018,12,0.0536833943256275,1
380,1019,12,0.0569159729393355,1
380,1020,12,0.0598027746411507,1
380,1021,12,0.0583380847718925,1
380,1022,12,0.0551547993595312,1
380,1023,12,0.0502013814077701,1
381,1017,12,0.0495034584503675,1
381,1018,12,0.0522467113427327,1
381,1019,12,0.0564057069340379,1
381,1020,12,0.0601753040769289,1
381,1021,12,0.0581574565750524,1
381,1022,12,0.0531294581231952,1
381,1023,12,0.0465575341033043,1
382,1017,12,0.0482614341411687,1
382,1018,12,0.0517800344335476,1
382,1019,12,0.0557774335345763,1
382,1020,12,0.0585906549822369,1
382,1021,12,0.0552426263599344,1
382,1022,12,0.0487321552879986,1
382,1023,12,0.0421965618227254,1
383,1016,12,0.0491180015116365,1
383,1017,12,0.0495729349927943,1
383,1018,12,0.052732106367862,1
383,1019,12,0.0555266637669267,1
383,1020,12,0.0563379281063443,1
383,1021,12,0.0499534555826354,1
383,1022,12,0.0425907452314545,1
384,1016,12,0.0537210684538477,1
384,1017,12,0.0536664928725826,1
384,1018,12,0.0551288740660731,1
384,1019,12,0.0558882932253094,1
384,1020,12,0.0538882825416014,1
384,1021,12,0.044991481473023,1
385,1015,12,0.0583236596033948,1
385,1016,12,0.0587189243590878,1
385,1017,12,0.0585146687310878,1
385,1018,12,0.0586398995229703,1
385,1019,12,0.0574667083547548,1
385,1020,12,0.0529404332671808,1
385,1021,12,0.0427920541889781,1
386,1018,12,0.0604948096643352,1
386,1019,12,0.0593234892263672,1
386,1020,12,0.0533250143148711,1
386,1021,12,0.0427761178380985,1
387,1018,12,0.0625419076015837,1
387,1019,12,0.0606607747963456,1
387,1020,12,0.0532158523388713,1
387,1021,12,0.0431137711309254,1
388,1017,12,0.0657351954733605,1
388,1018,12,0.064150351736215,1
388,1019,12,0.06085218942915,1
388,1020,12,0.0514888493231244,1
388,1021,12,0.0420049985047134,1
389,1018,12,0.0642797186802342,1
389,1019,12,0.0612570024785338,1
389,1020,12,0.051541494700059,1
389,1021,12,0.0413217413155079,1
390,1017,12,0.0620306629772838,1
390,1018,12,0.0636090997336686,1
390,1019,12,0.063697337645918,1
390,1020,12,0.0545161234022774,1
390,1021,12,0.0414590291260372,1
391,1017,12,0.0586431273436573,1
391,1018,12,0.0628487992766567,1
391,1019,12,0.0658146204078547,1
391,1020,12,0.0581982449825285,1
391,1021,12,0.0419473221610295,1
392,1016,12,0.0578103982670074,1
392,1017,12,0.0566015983432726,1
392,1018,12,0.0601355970164167,1
392,1019,12,0.0641218149898392,1
392,1020,12,0.0597486802592845,1
392,1021,12,0.0433393211840109,1
393,1016,12,0.0565068345020964,1
393,1017,12,0.054934788506268,1
393,1018,12,0.057274288069274,1
393,1019,12,0.0620337177824567,1
393,1020,12,0.0606097189994478,1
393,1021,12,0.0454505592164197,1
394,1017,12,0.0521908273316414,1
394,1018,12,0.0546622836646451,1
394,1019,12,0.0599258643660448,1
394,1020,12,0.0594217458182367,1
394,1021,12,0.0472697092136903,1
395,1017,12,0.0497925241207416,1
395,1018,12,0.0530562293068038,1
395,1019,12,0.057319715455225,1
395,1020,12,0.0566800662857038,1
395,1021,12,0.0495189974062379,1
396,1018,12,0.050299535271678,1
396,1019,12,0.0526423599765979,1
396,1020,12,0.0535847160084421,1
396,1021,12,0.0526017175509619,1
396,1022,12,0.0461848586856859,1
397,1019,12,0.0459570134736697,1
397,1020,12,0.0485463366257321,1
397,1021,12,0.0509002451370313,1
397,1022,12,0.048425517729462,1
397,1023,12,0.0439404744016194,1
398,1020,12,0.0460836608300748,1
398,1021,12,0.0483948074756889,1
398,1022,12,0.0477734006294477,1
398,1023,12,0.0482679114094821,1
399,1021,12,0.0442554058913686,1
399,1022,12,0.0439499172639811,1
377,1020,13,0.0466405220760443,1
377,1021,13,0.0453740431052582,1
377,1022,13,0.0436158594498089,1
378,1019,13,0.0520842119277415,1
378,1020,13,0.0501171606994913,1
378,1021,13,0.0486796991467826,1
378,1022,13,0.0481715417680646,1
378,1023,13,0.0457576671608855,1
379,1018,13,0.0583285040377928,1
379,1019,13,0.0585894925342508,1
379,1020,13,0.0565144579981915,1
379,1021,13,0.0535260475289189,1
379,1022,13,0.0521397985684177,1
379,1023,13,0.0476293219599855,1
380,1017,13,0.0549212284153414,1
380,1018,13,0.0610803374183161,1
380,1019,13,0.0641142780015013,1
380,1020,13,0.0626031550936157,1
380,1021,13,0.0572317262527772,1
380,1022,13,0.0524923393055694,1
380,1023,13,0.0458031756478588,1
381,1017,13,0.0535156503778616,1
381,1018,13,0.0600442664518506,1
381,1019,13,0.0639608727144759,1
381,1020,13,0.0630308710716936,1
381,1021,13,0.0558710619614406,1
381,1022,13,0.0484344983159967,1
381,1023,13,0.0411009600025329,1
382,1016,13,0.0481881836978381,1
382,1017,13,0.0512692115345637,1
382,1018,13,0.0571758854955644,1
382,1019,13,0.060842322138105,1
382,1020,13,0.0595753187140414,1
382,1021,13,0.0508403925825827,1
382,1022,13,0.0425164648051408,1
383,1016,13,0.048995641695943,1
383,1017,13,0.0512057905351344,1
383,1018,13,0.0560537284973075,1
383,1019,13,0.0581900970331559,1
383,1020,13,0.0552375169955302,1
383,1021,13,0.0445079788050805,1
384,1016,13,0.0524140768190613,1
384,1017,13,0.0541825711178109,1
384,1018,13,0.0566912690402492,1
384,1019,13,0.0561283738782215,1
384,1020,13,0.0503481093772938,1
385,1015,13,0.0548633763527759,1
385,1016,13,0.057021225846061,1
385,1017,13,0.0584317888930441,1
385,1018,13,0.0592770724079443,1
385,1019,13,0.0563303640843323,1
385,1020,13,0.0482275663542612,1
386,1015,13,0.058869134265835,1
386,1016,13,0.060631513547504,1
386,1017,13,0.0612276168747914,1
386,1018,13,0.0607567984067347,1
386,1019,13,0.056776717077332,1
386,1020,13,0.0474412216556252,1
387,1016,13,0.062303189445846,1
387,1017,13,0.0620287327729534,1
387,1018,13,0.0615636238168658,1
387,1019,13,0.0566220628345633,1
387,1020,13,0.0468083525315673,1
388,1016,13,0.062492403537579,1
388,1017,13,0.0626140496642764,1
388,1018,13,0.0622863961274976,1
388,1019,13,0.0564511883873371,1
388,1020,13,0.0458092798514696,1
389,1017,13,0.0628771846344576,1
389,1018,13,0.0628318329427941,1
389,1019,13,0.056730332699318,1
389,1020,13,0.0451666488676956,1
390,1017,13,0.0620856981310086,1
390,1018,13,0.0630718703418276,1
390,1019,13,0.0592217290703349,1
390,1020,13,0.0462386665106067,1
391,1016,13,0.0593448296086986,1
391,1017,13,0.0593830930710141,1
391,1018,13,0.0630535523242601,1
391,1019,13,0.0630639386618478,1
391,1020,13,0.0506665336177362,1
392,1016,13,0.0570037837195342,1
392,1017,13,0.0572546291814714,1
392,1018,13,0.0600685210642496,1
392,1019,13,0.0619544658634767,1
392,1020,13,0.0526293675928274,1
393,1016,13,0.0568975197533975,1
393,1017,13,0.0562041817071216,1
393,1018,13,0.0576826695636384,1
393,1019,13,0.0601204473454532,1
393,1020,13,0.0541946065095184,1
394,1016,13,0.054548763860381,1
394,1017,13,0.0536446226302389,1
394,1018,13,0.0553521668073715,1
394,1019,13,0.057764684324111,1
394,1020,13,0.0533763242283054,1
395,1017,13,0.0507692940197101,1
395,1018,13,0.0539529146496302,1
395,1019,13,0.0563506717803132,1
395,1020,13,0.0532879133005417,1
395,1021,13,0.0428080743442474,1
396,1017,13,0.0487187411789121,1
396,1018,13,0.0516426709287308,1
396,1019,13,0.0533905763812888,1
396,1020,13,0.0529409523137235,1
396,1021,13,0.0480900244271954,1
397,1018,13,0.0454964083276865,1
397,1019,13,0.0476544092095466,1
397,1020,13,0.0495522001647627,1
397,1021,13,0.0491055822417568,1
397,1022,13,0.0444624568012701,1
398,1019,13,0.0450836879286297,1
398,1020,13,0.0483168369528611,1
398,1021,13,0.0492463952433883,1
398,1022,13,0.0474018227789977,1
398,1023,13,0.0440747803978959,1
399,1020,13,0.0449057793194037,1
399,1021,13,0.0457166300436077,1
399,1022,13,0.0453267612092643,1
399,1023,13,0.0468909512194004,1
400,1022,13,0.0431203592373026,1
376,1022,14,0.041578882920142,1
377,1020,14,0.0471362277444737,1
377,1021,14,0.0460377360245205,1
377,1022,14,0.0433093192124991,1
377,1023,14,0.0422463443335732,1
378,1018,14,0.054089050825643,1
378,1019,14,0.0517805156329465,1
378,1020,14,0.0497876580594044,1
378,1021,14,0.048626994295765,1
378,1022,14,0.0470424154886257,1
378,1023,14,0.0441251170990627,1
379,1017,14,0.0565473958267101,1
379,1018,14,0.0634524882528954,1
379,1019,14,0.0619785204266874,1
379,1020,14,0.0564509018303917,1
379,1021,14,0.0527205683957578,1
379,1022,14,0.0496714132607914,1
379,1023,14,0.0437347400316463,1
380,1017,14,0.0609960950830981,1
380,1018,14,0.0729195079058142,1
380,1019,14,0.0738218811336703,1
380,1020,14,0.0645346462269599,1
380,1021,14,0.0553885595394396,1
380,1022,14,0.0478990315197069,1
381,1016,14,0.0490639882307927,1
381,1017,14,0.0598119714970782,1
381,1018,14,0.0723284328419087,1
381,1019,14,0.0753991554420689,1
381,1020,14,0.0657769408728996,1
381,1021,14,0.052218623355347,1
381,1022,14,0.0413134879348064,1
382,1016,14,0.0480434021528493,1
382,1017,14,0.054463861903515,1
382,1018,14,0.0636358576642888,1
382,1019,14,0.0679292430562602,1
382,1020,14,0.060174584981198,1
382,1021,14,0.0452365065849272,1
383,1016,14,0.0491089398240796,1
383,1017,14,0.0527142317025497,1
383,1018,14,0.0586512969199692,1
383,1019,14,0.0607223575059364,1
383,1020,14,0.0525615346977856,1
384,1015,14,0.0513116868433034,1
384,1016,14,0.0518555448920327,1
384,1017,14,0.054553100061706,1
384,1018,14,0.0572136839786855,1
384,1019,14,0.0551025757079124,1
384,1020,14,0.0448734713754915,1
385,1015,14,0.0533692846595708,1
385,1016,14,0.0558766525252436,1
385,1017,14,0.0580026563504436,1
385,1018,14,0.0591098907605996,1
385,1019,14,0.0538949760793075,1
385,1020,14,0.0422039284989165,1
386,1015,14,0.0559705188484399,1
386,1016,14,0.059204919531782,1
386,1017,14,0.060398937442521,1
386,1018,14,0.0601191497290966,1
386,1019,14,0.0529971715423736,1
387,1014,14,0.0542902029878568,1
387,1015,14,0.0577697720615759,1
387,1016,14,0.0600512249195629,1
387,1017,14,0.0599523952138026,1
387,1018,14,0.0595737021003305,1
387,1019,14,0.0513892464542849,1
388,1015,14,0.0587102087025593,1
388,1016,14,0.0589292030896765,1
388,1017,14,0.059030687502233,1
388,1018,14,0.0593285931840365,1
388,1019,14,0.0509742092693581,1
389,1016,14,0.05910628987521,1
389,1017,14,0.0595152607036697,1
389,1018,14,0.060088455695528,1
389,1019,14,0.0511150438979288,1
390,1016,14,0.0589932188299359,1
390,1017,14,0.0602258840811626,1
390,1018,14,0.0607885900074717,1
390,1019,14,0.0523406587669513,1
391,1016,14,0.0571020673450778,1
391,1017,14,0.0590881502798915,1
391,1018,14,0.0613623256728119,1
391,1019,14,0.0556187837147763,1
392,1015,14,0.0558973873532753,1
392,1016,14,0.0552008322997819,1
392,1017,14,0.0570416038295946,1
392,1018,14,0.0587852649953195,1
392,1019,14,0.0556029906423694,1
392,1020,14,0.0424308545660135,1
393,1016,14,0.0553277013323146,1
393,1017,14,0.0562523719345652,1
393,1018,14,0.0572999592461956,1
393,1019,14,0.0555588122121617,1
393,1020,14,0.0447955846570534,1
394,1016,14,0.0532370197056885,1
394,1017,14,0.0542249220716497,1
394,1018,14,0.0558998203839439,1
394,1019,14,0.0551851798024803,1
394,1020,14,0.0466126125109076,1
395,1016,14,0.0507391622865627,1
395,1017,14,0.0521833119702427,1
395,1018,14,0.0556178699765919,1
395,1019,14,0.0563282878981617,1
395,1020,14,0.0505418164656616,1
396,1017,14,0.0502114757816776,1
396,1018,14,0.0536568634778696,1
396,1019,14,0.0551459106874884,1
396,1020,14,0.053194868801038,1
396,1021,14,0.0436328041567323,1
397,1018,14,0.0485438224940411,1
397,1019,14,0.0511031977419399,1
397,1020,14,0.0524111625889938,1
397,1021,14,0.0481567110944555,1
398,1018,14,0.045236571465745,1
398,1019,14,0.0489808002088643,1
398,1020,14,0.0521289148112267,1
398,1021,14,0.0511772700089631,1
398,1022,14,0.0464112927399143,1
399,1019,14,0.0458786698861394,1
399,1020,14,0.0487001960784823,1
399,1021,14,0.0486833811331945,1
399,1022,14,0.0466129909823449,1
399,1023,14,0.0445639952811749,1
400,1021,14,0.0457814730142945,1
400,1022,14,0.0448767370433223,1
376,1021,15,0.0446456586038842,1
376,1022,15,0.041463073363682,1
377,1019,15,0.0470563432375199,1
377,1020,15,0.0476109228413957,1
377,1021,15,0.0464575149158837,1
377,1022,15,0.0433275723492488,1
377,1023,15,0.0415852682739635,1
378,1018,15,0.0530481732719232,1
378,1019,15,0.0508999153262073,1
378,1020,15,0.0502298749002674,1
378,1021,15,0.049115773936891,1
378,1022,15,0.046219067096887,1
378,1023,15,0.0421328785966573,1
379,1017,15,0.0576575390601988,1
379,1018,15,0.0661978119246964,1
379,1019,15,0.0626512425930977,1
379,1020,15,0.0564619423828925,1
379,1021,15,0.0527662607117149,1
379,1022,15,0.0478581187573299,1
380,1016,15,0.0496781176119672,1
380,1017,15,0.0666145684512957,1
380,1018,15,0.0840134410995067,1
380,1019,15,0.0806392114402702,1
380,1020,15,0.0653186444026843,1
380,1021,15,0.0535205002189944,1
380,1022,15,0.0441438595453135,1
381,1016,15,0.0493564763643074,1
381,1017,15,0.0658270288642647,1
381,1018,15,0.0845211929731133,1
381,1019,15,0.0842215571361676,1
381,1020,15,0.066449479210326,1
381,1021,15,0.0477523359905921,1
382,1016,15,0.048665392926451,1
382,1017,15,0.0582779943211118,1
382,1018,15,0.0707404207581592,1
382,1019,15,0.0735415851871729,1
382,1020,15,0.0591208610255477,1
383,1015,15,0.0477763148595153,1
383,1016,15,0.0503356576670052,1
383,1017,15,0.0549350534362741,1
383,1018,15,0.061259954555745,1
383,1019,15,0.0614168201530547,1
383,1020,15,0.0486044968721823,1
384,1015,15,0.0503268609094543,1
384,1016,15,0.0522525560230723,1
384,1017,15,0.0551798541686834,1
384,1018,15,0.0578341716800075,1
384,1019,15,0.0530312015313257,1
385,1015,15,0.0518489000149399,1
385,1016,15,0.0550752392566665,1
385,1017,15,0.0572400742513381,1
385,1018,15,0.058786595052085,1
385,1019,15,0.0503166584008505,1
386,1015,15,0.0533847857682975,1
386,1016,15,0.0573966370714979,1
386,1017,15,0.0592477679052242,1
386,1018,15,0.0595314484677184,1
386,1019,15,0.0489330425202063,1
387,1015,15,0.054386194157837,1
387,1016,15,0.0575323839626037,1
387,1017,15,0.0585295588787799,1
387,1018,15,0.0581641771464326,1
387,1019,15,0.0468088012905573,1
388,1015,15,0.0550565860215403,1
388,1016,15,0.0560731927426566,1
388,1017,15,0.0573118702830023,1
388,1018,15,0.0572120187043612,1
388,1019,15,0.0462325298665869,1
389,1015,15,0.0563557270773692,1
389,1016,15,0.0566147529290878,1
389,1017,15,0.057933801582521,1
389,1018,15,0.0576986356515596,1
389,1019,15,0.0457056922190684,1
390,1016,15,0.0571500413031286,1
390,1017,15,0.0593688192910914,1
390,1018,15,0.0584013976366254,1
390,1019,15,0.0455749789980793,1
391,1016,15,0.0567772523440791,1
391,1017,15,0.0595760432165072,1
391,1018,15,0.0593816278458781,1
391,1019,15,0.0476828216010216,1
392,1015,15,0.0538332203542026,1
392,1016,15,0.0551980262044107,1
392,1017,15,0.0577528922354703,1
392,1018,15,0.0578927536517736,1
392,1019,15,0.0488664261404988,1
393,1015,15,0.0529628117425976,1
393,1016,15,0.0548086980435492,1
393,1017,15,0.056646744579013,1
393,1018,15,0.0566460795506303,1
393,1019,15,0.0496825889816627,1
394,1016,15,0.0538830974829097,1
394,1017,15,0.0561068604803758,1
394,1018,15,0.0566533894561058,1
394,1019,15,0.0513290370553382,1
395,1016,15,0.0523923633720274,1
395,1017,15,0.0551193203656475,1
395,1018,15,0.057250574130357,1
395,1019,15,0.0543130680694072,1
395,1020,15,0.0446751766726296,1
396,1017,15,0.0526945241541336,1
396,1018,15,0.0556874222133062,1
396,1019,15,0.0548653660311893,1
396,1020,15,0.0497528116534946,1
397,1017,15,0.0480697545783582,1
397,1018,15,0.0515986601073025,1
397,1019,15,0.052750586587474,1
397,1020,15,0.0519713787787994,1
397,1021,15,0.0445398082529611,1
398,1018,15,0.0484455875291109,1
398,1019,15,0.051386943185252,1
398,1020,15,0.0532938282684339,1
398,1021,15,0.0501643398675237,1
398,1022,15,0.0437118587298914,1
399,1019,15,0.0481274065917354,1
399,1020,15,0.050156797472451,1
399,1021,15,0.0487704295637838,1
399,1022,15,0.0454888497124093,1
399,1023,15,0.0410451489823617,1
400,1020,15,0.0471644400867604,1
400,1021,15,0.0468664208635256,1
400,1022,15,0.0455711077759487,1
400,1023,15,0.0455140775370757,1
401,1022,15,0.0465151723359958,1
376,1020,16,0.0450311506863915,1
376,1021,16,0.0441690008622228,1
377,1019,16,0.0460314912458043,1
377,1020,16,0.0478323286322423,1
377,1021,16,0.0465253748445996,1
377,1022,16,0.0420923983730659,1
378,1018,16,0.051796081622491,1
378,1019,16,0.0506346663227118,1
378,1020,16,0.0512394420526491,1
378,1021,16,0.0495555036797372,1
378,1022,16,0.0440316130270993,1
379,1017,16,0.0573929118312074,1
379,1018,16,0.0658964188989345,1
379,1019,16,0.0614367007169849,1
379,1020,16,0.0565932665649162,1
379,1021,16,0.0520578270618237,1
379,1022,16,0.0439902569124672,1
380,1016,16,0.0500123889921647,1
380,1017,16,0.0687773867338797,1
380,1018,16,0.0887237722537961,1
380,1019,16,0.0819310425906236,1
380,1020,16,0.06459460150937,1
380,1021,16,0.0502519397850646,1
381,1016,16,0.049375178260047,1
381,1017,16,0.0684209369274538,1
381,1018,16,0.0914250310368206,1
381,1019,16,0.0875372156371076,1
381,1020,16,0.0651590267773516,1
381,1021,16,0.0425527791395541,1
382,1015,16,0.0437951548865161,1
382,1016,16,0.049343327185227,1
382,1017,16,0.0602887211532315,1
382,1018,16,0.0750594502933781,1
382,1019,16,0.0749368904284963,1
382,1020,16,0.0561256002232592,1
383,1015,16,0.0476267321340071,1
383,1016,16,0.0520685594304399,1
383,1017,16,0.056679493171813,1
383,1018,16,0.0617273721876004,1
383,1019,16,0.0587039098564949,1
383,1020,16,0.0431791547750941,1
384,1015,16,0.0499389871602592,1
384,1016,16,0.053062533559603,1
384,1017,16,0.055437263406691,1
384,1018,16,0.0563857074219417,1
384,1019,16,0.048701877573011,1
385,1015,16,0.0510352837458758,1
385,1016,16,0.0543543052358733,1
385,1017,16,0.0558416006634107,1
385,1018,16,0.0558147508182985,1
385,1019,16,0.0447211447320626,1
386,1014,16,0.0469154815752751,1
386,1015,16,0.0514327382291706,1
386,1016,16,0.055378470572267,1
386,1017,16,0.0570512710714513,1
386,1018,16,0.0557495077492351,1
386,1019,16,0.042793611328606,1
387,1014,16,0.0478352753027188,1
387,1015,16,0.0513114705739106,1
387,1016,16,0.0545453035500967,1
387,1017,16,0.0558124205155914,1
387,1018,16,0.053315595782816,1
388,1014,16,0.0499209556996371,1
388,1015,16,0.0513873162499545,1
388,1016,16,0.0532157928647883,1
388,1017,16,0.0551510200518925,1
388,1018,16,0.0522639534200712,1
389,1015,16,0.0531502362051054,1
389,1016,16,0.0546615159083007,1
389,1017,16,0.0569610056336447,1
389,1018,16,0.053114540941829,1
390,1016,16,0.0561740716009134,1
390,1017,16,0.0590502977294222,1
390,1018,16,0.053905967971195,1
391,1015,16,0.0541319316394941,1
391,1016,16,0.0572590464838187,1
391,1017,16,0.0599005986942346,1
391,1018,16,0.0548158944075936,1
392,1014,16,0.0520762910612313,1
392,1015,16,0.0535211219934986,1
392,1016,16,0.0562047548210124,1
392,1017,16,0.0583392526266134,1
392,1018,16,0.054507672675755,1
393,1015,16,0.0524902036453158,1
393,1016,16,0.0550243997291615,1
393,1017,16,0.0569182167342855,1
393,1018,16,0.0542001592261777,1
393,1019,16,0.0420499257676936,1
394,1015,16,0.0512319429114549,1
394,1016,16,0.0547611025569357,1
394,1017,16,0.0576909202409725,1
394,1018,16,0.055843206463652,1
394,1019,16,0.0454103979901826,1
395,1016,16,0.0542129299338207,1
395,1017,16,0.0581688972259298,1
395,1018,16,0.0577100222350888,1
395,1019,16,0.0502132491906983,1
396,1016,16,0.0509789401623249,1
396,1017,16,0.055954904198282,1
396,1018,16,0.0570988719647996,1
396,1019,16,0.0528755848897593,1
396,1020,16,0.0442807499608336,1
397,1017,16,0.0514979380443555,1
397,1018,16,0.0539079900900174,1
397,1019,16,0.052549618254244,1
397,1020,16,0.0491437916367242,1
398,1017,16,0.0468970283893372,1
398,1018,16,0.0508540391812664,1
398,1019,16,0.051643233229152,1
398,1020,16,0.0516625893398048,1
398,1021,16,0.0467561991675012,1
399,1018,16,0.0461895463247742,1
399,1019,16,0.0484305027389654,1
399,1020,16,0.049097412665445,1
399,1021,16,0.0469364164524951,1
399,1022,16,0.0424798179565363,1
400,1019,16,0.045530876262159,1
400,1020,16,0.0466563746225342,1
400,1021,16,0.0462070479253839,1
400,1022,16,0.0442869217486297,1
400,1023,16,0.0429322994834535,1
401,1021,16,0.0467897479570544,1
401,1022,16,0.0459346187780485,1
376,1019,17,0.0412312082443277,1
376,1020,17,0.0440706658726985,1
376,1021,17,0.0433370611688565,1
377,1018,17,0.0446596782672704,1
377,1019,17,0.0450228756787507,1
377,1020,17,0.0477246967621963,1
377,1021,17,0.0465052185371936,1
377,1022,17,0.0417401820400034,1
378,1017,17,0.0484604344229245,1
378,1018,17,0.0501879672986837,1
378,1019,17,0.0498853685710571,1
378,1020,17,0.0508155270091491,1
378,1021,17,0.0484046855802036,1
378,1022,17,0.0418445347253816,1
379,1017,17,0.0544733561298575,1
379,1018,17,0.0615162662265844,1
379,1019,17,0.0577886577862994,1
379,1020,17,0.0539144727650656,1
379,1021,17,0.0485399188315017,1
380,1016,17,0.0481735692936218,1
380,1017,17,0.0644614174105685,1
380,1018,17,0.080980116884091,1
380,1019,17,0.0733535984242439,1
380,1020,17,0.0575968754955272,1
380,1021,17,0.0436286625978608,1
381,1016,17,0.04859798716346,1
381,1017,17,0.0661125369031278,1
381,1018,17,0.0864051859410707,1
381,1019,17,0.0797052466608655,1
381,1020,17,0.0569220501092723,1
382,1015,17,0.0431073776670017,1
382,1016,17,0.0495818615119809,1
382,1017,17,0.0595975620210877,1
382,1018,17,0.0724795348599011,1
382,1019,17,0.0679995468291144,1
382,1020,17,0.0477832246666142,1
383,1015,17,0.04798910231506,1
383,1016,17,0.0536141610862675,1
383,1017,17,0.0574625289487396,1
383,1018,17,0.0599798343930101,1
383,1019,17,0.0527675367011322,1
384,1015,17,0.0506553092362516,1
384,1016,17,0.0541778672585181,1
384,1017,17,0.055228341766542,1
384,1018,17,0.0535069725684767,1
384,1019,17,0.0431851427339064,1
385,1014,17,0.0475525355120831,1
385,1015,17,0.0515486640304293,1
385,1016,17,0.0543882865642121,1
385,1017,17,0.0547216604264296,1
385,1018,17,0.0515884954458424,1
386,1014,17,0.0467641092205417,1
386,1015,17,0.0508710866161513,1
386,1016,17,0.053857880471713,1
386,1017,17,0.0544602826450646,1
386,1018,17,0.050109964335447,1
387,1014,17,0.0464658250673009,1
387,1015,17,0.0493881652370827,1
387,1016,17,0.0521336619243979,1
387,1017,17,0.0527201358569722,1
387,1018,17,0.047472899714931,1
388,1014,17,0.0476696994556153,1
388,1015,17,0.0489208935870675,1
388,1016,17,0.0509925164734559,1
388,1017,17,0.0523121436475148,1
388,1018,17,0.04642831854786,1
389,1014,17,0.0510690325846173,1
389,1015,17,0.0501685517139479,1
389,1016,17,0.0522830662276571,1
389,1017,17,0.0543290990381462,1
389,1018,17,0.0470371655491162,1
390,1015,17,0.0512760780877841,1
390,1016,17,0.0537931456357226,1
390,1017,17,0.0559730437936004,1
390,1018,17,0.0471377091898142,1
391,1015,17,0.0528047566636276,1
391,1016,17,0.0558240882493313,1
391,1017,17,0.0570216421646421,1
391,1018,17,0.0479464539908061,1
392,1014,17,0.0505884387400076,1
392,1015,17,0.0536394970456303,1
392,1016,17,0.0566381208369764,1
392,1017,17,0.0569121449710835,1
392,1018,17,0.0492315591630444,1
393,1014,17,0.0477195279237092,1
393,1015,17,0.0526116767564989,1
393,1016,17,0.0558981821432937,1
393,1017,17,0.0563041197935198,1
393,1018,17,0.0504896955420044,1
394,1015,17,0.0515694312988699,1
394,1016,17,0.0565218760383634,1
394,1017,17,0.0582520744343885,1
394,1018,17,0.0534268880123346,1
395,1015,17,0.0499231778676478,1
395,1016,17,0.0561733038445691,1
395,1017,17,0.0594048173315177,1
395,1018,17,0.0555370446977795,1
395,1019,17,0.0441138900142106,1
396,1016,17,0.0523662812832595,1
396,1017,17,0.0573228135142764,1
396,1018,17,0.0552301530227065,1
396,1019,17,0.0470935199461368,1
397,1016,17,0.0473137146283839,1
397,1017,17,0.0533909115988476,1
397,1018,17,0.0529146593622977,1
397,1019,17,0.0477642956880122,1
397,1020,17,0.0414603970299465,1
398,1017,17,0.0492135763630357,1
398,1018,17,0.0508773908689505,1
398,1019,17,0.0483537487314719,1
398,1020,17,0.0457039728773959,1
399,1018,17,0.0467865417633066,1
399,1019,17,0.0466795803283783,1
399,1020,17,0.0458595787054927,1
399,1021,17,0.0430085993252222,1
400,1019,17,0.0450661322606717,1
400,1020,17,0.0453926476797711,1
400,1021,17,0.0447464563611187,1
400,1022,17,0.0423809071497537,1
401,1020,17,0.0451954883912213,1
401,1021,17,0.0461449894231291,1
401,1022,17,0.0449530882490718,1
376,1020,18,0.0422088972882154,1
376,1021,18,0.0410952883377076,1
377,1018,18,0.0437940951664915,1
377,1019,18,0.0453273126962158,1
377,1020,18,0.0474314246521328,1
377,1021,18,0.0451369631901708,1
378,1017,18,0.0462561627044816,1
378,1018,18,0.0490672755255627,1
378,1019,18,0.0501205236885489,1
378,1020,18,0.0503217515450502,1
378,1021,18,0.0460934416133627,1
379,1016,18,0.0438344726621214,1
379,1017,18,0.0510657939504606,1
379,1018,18,0.0566283184267492,1
379,1019,18,0.0546884090072915,1
379,1020,18,0.0509345292425199,1
379,1021,18,0.0439743584087313,1
380,1016,18,0.0456885420562219,1
380,1017,18,0.0581393494201428,1
380,1018,18,0.069094318715512,1
380,1019,18,0.0632243835176078,1
380,1020,18,0.0500323776907913,1
381,1016,18,0.0474313759915195,1
381,1017,18,0.0618951215421011,1
381,1018,18,0.0758906817044831,1
381,1019,18,0.0684141406617861,1
381,1020,18,0.0474940833019526,1
382,1015,18,0.0428282414651231,1
382,1016,18,0.0490609172054154,1
382,1017,18,0.0577202896245105,1
382,1018,18,0.06611247202231,1
382,1019,18,0.0583136895843882,1
383,1015,18,0.0478050192146705,1
383,1016,18,0.0534064992153314,1
383,1017,18,0.0558921428205006,1
383,1018,18,0.0554552191730256,1
383,1019,18,0.0450769889841887,1
384,1014,18,0.045134713988486,1
384,1015,18,0.0505330845889285,1
384,1016,18,0.0538634872557205,1
384,1017,18,0.0529163949241747,1
384,1018,18,0.0482828718447269,1
385,1014,18,0.0469219426233841,1
385,1015,18,0.051328296332668,1
385,1016,18,0.0532787326648187,1
385,1017,18,0.0519031890392596,1
385,1018,18,0.0457992827987889,1
386,1014,18,0.0467406385846916,1
386,1015,18,0.050309137632717,1
386,1016,18,0.0516857463850355,1
386,1017,18,0.0506695505757654,1
386,1018,18,0.0434929427404291,1
387,1014,18,0.0456460343070733,1
387,1015,18,0.0478115883974758,1
387,1016,18,0.0492136304303839,1
387,1017,18,0.0484351741578491,1
387,1018,18,0.0410609528682382,1
388,1014,18,0.0459904811622006,1
388,1015,18,0.0464569580221974,1
388,1016,18,0.0476957382905046,1
388,1017,18,0.0476569179345027,1
389,1014,18,0.0491164065248649,1
389,1015,18,0.0471009325795739,1
389,1016,18,0.048233702998281,1
389,1017,18,0.0487555394160917,1
390,1014,18,0.0518916132200116,1
390,1015,18,0.0486640736831551,1
390,1016,18,0.049510979218501,1
390,1017,18,0.0496442660452641,1
391,1014,18,0.0516709048979567,1
391,1015,18,0.0509464456860614,1
391,1016,18,0.052106325473152,1
391,1017,18,0.050719833209584,1
392,1014,18,0.0490778186584602,1
392,1015,18,0.0526426843806871,1
392,1016,18,0.0540929058275691,1
392,1017,18,0.051542062407215,1
392,1018,18,0.042129061441875,1
393,1014,18,0.0459395118730599,1
393,1015,18,0.0519948169742407,1
393,1016,18,0.0542312912052667,1
393,1017,18,0.0522050632644204,1
393,1018,18,0.0445755224398094,1
394,1014,18,0.0449214155965008,1
394,1015,18,0.0513666787431496,1
394,1016,18,0.0558757658207333,1
394,1017,18,0.0554708230097139,1
394,1018,18,0.0487780692800833,1
395,1015,18,0.0497452800718914,1
395,1016,18,0.056350736661131,1
395,1017,18,0.0577675877407089,1
395,1018,18,0.0516682610046302,1
396,1016,18,0.0525052559950525,1
396,1017,18,0.0559083089576101,1
396,1018,18,0.0516249800924024,1
396,1019,18,0.0410726260087129,1
397,1016,18,0.0474830535629215,1
397,1017,18,0.0523030116724052,1
397,1018,18,0.0498278841664593,1
397,1019,18,0.0424511622619945,1
398,1017,18,0.0492539917058093,1
398,1018,18,0.048799431289354,1
398,1019,18,0.0441128221840838,1
399,1017,18,0.0450808007322363,1
399,1018,18,0.0459595113851562,1
399,1019,18,0.0437229398329033,1
399,1020,18,0.0418648343112603,1
400,1018,18,0.0442176939160046,1
400,1019,18,0.0431534754880703,1
400,1020,18,0.0428801407126526,1
400,1021,18,0.042682064982551,1
401,1019,18,0.0428424395507583,1
401,1020,18,0.0431682169505548,1
401,1021,18,0.0446210606638242,1
401,1022,18,0.043771203051267,1
401,1023,18,0.042612653320942,1
402,1022,18,0.0469450239743273,1
376,1020,19,0.0409924630549159,1
377,1017,19,0.0411013384739703,1
377,1018,19,0.0439391875987324,1
377,1019,19,0.0469870126769332,1
377,1020,19,0.0483966944261408,1
377,1021,19,0.0437841332575871,1
378,1017,19,0.0447096364969999,1
378,1018,19,0.0494953970087521,1
378,1019,19,0.0516748680345792,1
378,1020,19,0.0505774360346505,1
378,1021,19,0.0434571393424563,1
379,1016,19,0.0426339504493948,1
379,1017,19,0.0485048940033428,1
379,1018,19,0.0538096686173301,1
379,1019,19,0.0527253803897469,1
379,1020,19,0.0480659212033713,1
380,1016,19,0.0444418355146697,1
380,1017,19,0.0533758754693154,1
380,1018,19,0.060561025945666,1
380,1019,19,0.055480090153194,1
380,1020,19,0.043991324742594,1
381,1016,19,0.0468004532919965,1
381,1017,19,0.0578765550742552,1
381,1018,19,0.0664073769662889,1
381,1019,19,0.0579159809845569,1
382,1015,19,0.043332378936503,1
382,1016,19,0.0491425480877158,1
382,1017,19,0.0562048251085651,1
382,1018,19,0.0600728086049612,1
382,1019,19,0.0493694633413431,1
383,1014,19,0.0426636685673286,1
383,1015,19,0.0485296027814666,1
383,1016,19,0.0528439500843321,1
383,1017,19,0.0536646762096834,1
383,1018,19,0.0500344700971664,1
384,1014,19,0.0465026449314197,1
384,1015,19,0.0517984281454026,1
384,1016,19,0.0538850655343839,1
384,1017,19,0.0509595407977936,1
384,1018,19,0.0429339404274712,1
385,1014,19,0.0489105829437673,1
385,1015,19,0.0523159499888275,1
385,1016,19,0.052681894021596,1
385,1017,19,0.0491679759615705,1
386,1014,19,0.0491671757648172,1
386,1015,19,0.0513304860602698,1
386,1016,19,0.050775846982311,1
386,1017,19,0.0470636207025866,1
387,1014,19,0.0470286877889197,1
387,1015,19,0.0486701130059482,1
387,1016,19,0.0489370489107073,1
387,1017,19,0.0452440273530607,1
388,1014,19,0.0467428337190282,1
388,1015,19,0.0473486151016419,1
388,1016,19,0.0482043336147431,1
388,1017,19,0.0448157166341527,1
389,1014,19,0.0493841696600513,1
389,1015,19,0.0475229444524176,1
389,1016,19,0.0482167853250317,1
389,1017,19,0.0450322185165183,1
390,1013,19,0.0539359158753586,1
390,1014,19,0.0522421372450757,1
390,1015,19,0.0485204275524784,1
390,1016,19,0.0485143287556024,1
390,1017,19,0.0451595011642646,1
391,1013,19,0.0530665940174522,1
391,1014,19,0.0522144709830058,1
391,1015,19,0.0508391165931654,1
391,1016,19,0.0507768147878436,1
391,1017,19,0.046203398379381,1
392,1014,19,0.0504982976571018,1
392,1015,19,0.0537803424876707,1
392,1016,19,0.0536517649269351,1
392,1017,19,0.0479022755605984,1
393,1014,19,0.0477853116662545,1
393,1015,19,0.0541449402434692,1
393,1016,19,0.054578609036583,1
393,1017,19,0.0495038855824182,1
394,1014,19,0.0465763873876189,1
394,1015,19,0.053511000585917,1
394,1016,19,0.0562194719531903,1
394,1017,19,0.0532944608564078,1
394,1018,19,0.0442990760885033,1
395,1014,19,0.0446106013353164,1
395,1015,19,0.0507689209550076,1
395,1016,19,0.0561552291300685,1
395,1017,19,0.0559079737400513,1
395,1018,19,0.047712055816189,1
396,1015,19,0.0466588887542252,1
396,1016,19,0.0529351022266491,1
396,1017,19,0.0548675719789956,1
396,1018,19,0.0487758741457467,1
397,1016,19,0.0480275874535032,1
397,1017,19,0.0513370660565448,1
397,1018,19,0.0476716783205592,1
398,1016,19,0.0461925038087203,1
398,1017,19,0.049402422796801,1
398,1018,19,0.0472751267619792,1
398,1019,19,0.0411147823200982,1
399,1017,19,0.0464292052523704,1
399,1018,19,0.0450525856865822,1
399,1019,19,0.0414628679077589,1
400,1018,19,0.0438610683906971,1
400,1019,19,0.0418641936131842,1
400,1020,19,0.0416862741904885,1
401,1019,19,0.0426918052153278,1
401,1020,19,0.0429535776883345,1
401,1021,19,0.0431605258702745,1
401,1022,19,0.0414381023589195,1
402,1020,19,0.0466874255006009,1
402,1021,19,0.0459795595578658,1
402,1022,19,0.0444179674838103,1
377,1018,20,0.043687079664215,1
377,1019,20,0.0488273138208167,1
377,1020,20,0.0494209841174353,1
377,1021,20,0.042049987945144,1
378,1017,20,0.042889521397564,1
378,1018,20,0.0504638189091597,1
378,1019,20,0.0535979354750751,1
378,1020,20,0.0508689347356933,1
379,1016,20,0.0416147322753608,1
379,1017,20,0.0471526317779152,1
379,1018,20,0.0530802784632797,1
379,1019,20,0.0516678879399276,1
379,1020,20,0.0452946830515819,1
380,1016,20,0.043962766369279,1
380,1017,20,0.0511779080036717,1
380,1018,20,0.0562547292709464,1
380,1019,20,0.0506542873633707,1
381,1016,20,0.0463673522060386,1
381,1017,20,0.054849405350003,1
381,1018,20,0.0591520200383108,1
381,1019,20,0.0493319892623112,1
382,1015,20,0.0435517301681183,1
382,1016,20,0.0487323931843306,1
382,1017,20,0.0542940471763133,1
382,1018,20,0.0541490223282577,1
382,1019,20,0.0414891662659195,1
383,1014,20,0.0431314349335798,1
383,1015,20,0.0483442274714553,1
383,1016,20,0.051256224557528,1
383,1017,20,0.0507692940197101,1
383,1018,20,0.0440579059785251,1
384,1014,20,0.0478042730852654,1
384,1015,20,0.0518747766477846,1
384,1016,20,0.0528238694712135,1
384,1017,20,0.0487849953073867,1
385,1014,20,0.0509903970334068,1
385,1015,20,0.0521888917205761,1
385,1016,20,0.0511492685293344,1
385,1017,20,0.0459929412265433,1
386,1014,20,0.0512783759500823,1
386,1015,20,0.0509839738324416,1
386,1016,20,0.0484891766252234,1
386,1017,20,0.0425416412658265,1
387,1014,20,0.0486861331612175,1
387,1015,20,0.0490372303001724,1
387,1016,20,0.0474566632902689,1
388,1014,20,0.0479867990460271,1
388,1015,20,0.0486162348934748,1
388,1016,20,0.0480224078015464,1
388,1017,20,0.0412718047127177,1
389,1014,20,0.0504096434262712,1
389,1015,20,0.0487876716411222,1
389,1016,20,0.0478603355186058,1
389,1017,20,0.0412234198428206,1
390,1013,20,0.0559609975884233,1
390,1014,20,0.0533860887913889,1
390,1015,20,0.0493305078169707,1
390,1016,20,0.0476602484831514,1
390,1017,20,0.0413723105062719,1
391,1013,20,0.0555230736950067,1
391,1014,20,0.0536997821388645,1
391,1015,20,0.0516361720334782,1
391,1016,20,0.0501034816603987,1
391,1017,20,0.0432331869795099,1
392,1013,20,0.0502576222633595,1
392,1014,20,0.0521593601349936,1
392,1015,20,0.0551961825078374,1
392,1016,20,0.0539486595493275,1
392,1017,20,0.046032605033177,1
393,1014,20,0.0496314196433337,1
393,1015,20,0.0561776670795682,1
393,1016,20,0.0554505693810811,1
393,1017,20,0.0483640810017114,1
394,1014,20,0.0476880499135917,1
394,1015,20,0.0544881057024443,1
394,1016,20,0.0557642627285567,1
394,1017,20,0.0517305574032171,1
394,1018,20,0.0419930009601496,1
395,1014,20,0.0449973640005062,1
395,1015,20,0.050547844974985,1
395,1016,20,0.054420137639032,1
395,1017,20,0.0542095236908846,1
395,1018,20,0.0456972577127505,1
396,1015,20,0.0469026027329358,1
396,1016,20,0.0517296220380933,1
396,1017,20,0.0536211033337754,1
396,1018,20,0.0474543167673574,1
397,1016,20,0.0475588451716171,1
397,1017,20,0.0499588082501064,1
397,1018,20,0.0463480285357948,1
398,1016,20,0.0468183009236347,1
398,1017,20,0.0484634567876884,1
398,1018,20,0.0456845248522512,1
399,1017,20,0.0471133194090448,1
399,1018,20,0.0437715193452539,1
400,1018,20,0.0427896671155554,1
401,1020,20,0.0430204238542718,1
401,1021,20,0.0416038377047001,1
402,1021,20,0.0440832392345205,1
402,1022,20,0.0415607216978843,1
377,1018,21,0.0446158674950303,1
377,1019,21,0.0507452935238476,1
377,1020,21,0.0510444157209855,1
377,1021,21,0.0429321859420223,1
378,1017,21,0.0434769820592428,1
378,1018,21,0.0521701681978972,1
378,1019,21,0.0564710527310629,1
378,1020,21,0.0526495725608467,1
378,1021,21,0.0412399266042236,1
379,1016,21,0.0420822174914013,1
379,1017,21,0.0484507077069847,1
379,1018,21,0.055170176113357,1
379,1019,21,0.0541030921159685,1
379,1020,21,0.0455208089219256,1
380,1016,21,0.0452769786984164,1
380,1017,21,0.052175796608844,1
380,1018,21,0.0561289361786427,1
380,1019,21,0.050625090995347,1
381,1015,21,0.0415623653452693,1
381,1016,21,0.0486940972816062,1
381,1017,21,0.0550714707624975,1
381,1018,21,0.0556048775928213,1
381,1019,21,0.0456324904363512,1
382,1015,21,0.0452842859005246,1
382,1016,21,0.0509612114788527,1
382,1017,21,0.0544664463227585,1
382,1018,21,0.050237990409231,1
383,1014,21,0.0450956124822735,1
383,1015,21,0.0496416870327554,1
383,1016,21,0.0516932455262297,1
383,1017,21,0.0496912505708431,1
384,1014,21,0.0510656804090294,1
384,1015,21,0.0536448443063665,1
384,1016,21,0.0531233539195843,1
384,1017,21,0.0477916429527277,1
385,1014,21,0.0547438172257187,1
385,1015,21,0.0547132096999072,1
385,1016,21,0.0522975184298288,1
385,1017,21,0.0448020159681209,1
386,1014,21,0.0541155221993179,1
386,1015,21,0.0524953887040074,1
386,1016,21,0.0486692046744986,1
387,1013,21,0.0496768037754061,1
387,1014,21,0.0512910763701726,1
387,1015,21,0.0504165748603094,1
387,1016,21,0.046986839661419,1
388,1013,21,0.0503515264336995,1
388,1014,21,0.0509622549786728,1
388,1015,21,0.0508877934267427,1
388,1016,21,0.0481203562095311,1
389,1014,21,0.0530670427764422,1
389,1015,21,0.0512264875160223,1
389,1016,21,0.0479947415394765,1
390,1013,21,0.0582171144870475,1
390,1014,21,0.0561017186755628,1
390,1015,21,0.0517061297753039,1
390,1016,21,0.0475024421139831,1
391,1013,21,0.0589043375162429,1
391,1014,21,0.0573805195950018,1
391,1015,21,0.0542481439976982,1
391,1016,21,0.0503395018554616,1
391,1017,21,0.0415349721233078,1
392,1013,21,0.0551206720493523,1
392,1014,21,0.0569628871773617,1
392,1015,21,0.0580543663622545,1
392,1016,21,0.0553576222028041,1
392,1017,21,0.046230761864301,1
393,1014,21,0.0551216777020287,1
393,1015,21,0.0596969432137995,1
393,1016,21,0.0585209351367432,1
393,1017,21,0.0506689504282004,1
394,1014,21,0.0520584650565324,1
394,1015,21,0.0573071447967704,1
394,1016,21,0.0580006991124391,1
394,1017,21,0.0536637624714989,1
394,1018,21,0.0420835908020454,1
395,1014,21,0.0477588348858448,1
395,1015,21,0.0521284606455019,1
395,1016,21,0.0544459980516723,1
395,1017,21,0.0542728635892916,1
395,1018,21,0.0450611742848425,1
396,1015,21,0.0481753535161121,1
396,1016,21,0.0512272714925711,1
396,1017,21,0.0531589086077554,1
396,1018,21,0.0470405177247041,1
397,1016,21,0.0475332388755133,1
397,1017,21,0.0493734643251093,1
397,1018,21,0.0460043602504815,1
398,1016,21,0.0473305079467323,1
398,1017,21,0.0480721065080045,1
398,1018,21,0.0453472878780054,1
399,1017,21,0.0481629288394976,1
399,1018,21,0.043987932016495,1
400,1018,21,0.0433618861917789,1
377,1018,22,0.0444399539709526,1
377,1019,22,0.0507234232815039,1
377,1020,22,0.0514714666706806,1
377,1021,22,0.043951909645762,1
378,1017,22,0.0429113619028662,1
378,1018,22,0.0522749182782846,1
378,1019,22,0.0582930791112574,1
378,1020,22,0.0548053080208176,1
378,1021,22,0.0428703004552817,1
379,1016,22,0.0412704665458499,1
379,1017,22,0.0478203959684963,1
379,1018,22,0.0566516647076985,1
379,1019,22,0.0574866754264422,1
379,1020,22,0.0478979772064171,1
380,1016,22,0.0453610074676091,1
380,1017,22,0.0515552710603783,1
380,1018,22,0.0557937780939348,1
380,1019,22,0.0514055910136434,1
381,1015,22,0.0422289643844969,1
381,1016,22,0.051168062339566,1
381,1017,22,0.0550272382649416,1
381,1018,22,0.0523457302842117,1
381,1019,22,0.0428285901995189,1
382,1015,22,0.0458777128940764,1
382,1016,22,0.05366193499513,1
382,1017,22,0.0544497773593109,1
382,1018,22,0.0463449683238871,1
383,1014,22,0.0456232935804237,1
383,1015,22,0.0492547702756232,1
383,1016,22,0.0517880526212845,1
383,1017,22,0.048399619469678,1
384,1014,22,0.053324749384865,1
384,1015,22,0.0539790129586025,1
384,1016,22,0.0520674132026582,1
384,1017,22,0.0450968208875056,1
385,1014,22,0.0575127142613315,1
385,1015,22,0.0564794061363585,1
385,1016,22,0.052883100251158,1
385,1017,22,0.0426576643883119,1
386,1013,22,0.0525707748075916,1
386,1014,22,0.0554465900242542,1
386,1015,22,0.0533690251362995,1
386,1016,22,0.048891032190661,1
387,1013,22,0.0521202802557204,1
387,1014,22,0.0529215313222529,1
387,1015,22,0.051332335163578,1
387,1016,22,0.0462188508274943,1
388,1013,22,0.0525568957193107,1
388,1014,22,0.0531988914117434,1
388,1015,22,0.0533918631841758,1
388,1016,22,0.0478899752388847,1
389,1013,22,0.0562166604510843,1
389,1014,22,0.0557058916194486,1
389,1015,22,0.0552824685888171,1
389,1016,22,0.0490966286888962,1
390,1013,22,0.0634378360015353,1
390,1014,22,0.0615663488112147,1
390,1015,22,0.0580250402325951,1
390,1016,22,0.0500402877438318,1
391,1013,22,0.0764306523108774,1
391,1014,22,0.0753713161644848,1
391,1015,22,0.0659593478854952,1
391,1016,22,0.0545611669100562,1
391,1017,22,0.0410133519748899,1
392,1013,22,0.0949221071178842,1
392,1014,22,0.0953991433309829,1
392,1015,22,0.0772277077511902,1
392,1016,22,0.0611179791061275,1
392,1017,22,0.0477854522413598,1
393,1013,22,0.0979689752040221,1
393,1014,22,0.0997948728063471,1
393,1015,22,0.080539062491214,1
393,1016,22,0.0655230243855851,1
393,1017,22,0.0550830141413365,1
394,1014,22,0.0802863138586205,1
394,1015,22,0.0707344841633277,1
394,1016,22,0.063506182536385,1
394,1017,22,0.0582944416084318,1
394,1018,22,0.0431071722110786,1
395,1014,22,0.0573930794399868,1
395,1015,22,0.0572285416859687,1
395,1016,22,0.0566347200007751,1
395,1017,22,0.0562261817111009,1
395,1018,22,0.0458549018798741,1
396,1015,22,0.0505228388264461,1
396,1016,22,0.051860767797868,1
396,1017,22,0.0536314572309542,1
396,1018,22,0.0483183021779972,1
397,1016,22,0.0481300775187361,1
397,1017,22,0.0498090146619402,1
397,1018,22,0.0475879820655578,1
398,1016,22,0.047704848638675,1
398,1017,22,0.0484729726409702,1
398,1018,22,0.0468454102920182,1
399,1017,22,0.0486891284923073,1
399,1018,22,0.0450209427710528,1
400,1018,22,0.0441564734576467,1
377,1018,23,0.0451414697036426,1
377,1019,23,0.0505164102187461,1
377,1020,23,0.0517880147741408,1
377,1021,23,0.0449442022803964,1
378,1017,23,0.0439637017344027,1
378,1018,23,0.0528237451163127,1
378,1019,23,0.0596279803111805,1
378,1020,23,0.0571176171144178,1
378,1021,23,0.0450411801794811,1
379,1016,23,0.0414249775101458,1
379,1017,23,0.0488246212668767,1
379,1018,23,0.0593472031652842,1
379,1019,23,0.0623248163851228,1
379,1020,23,0.0526615322582668,1
380,1016,23,0.0455387160276468,1
380,1017,23,0.0523388366973172,1
380,1018,23,0.0582380169238586,1
380,1019,23,0.0553856128689632,1
380,1020,23,0.041441676210635,1
381,1015,23,0.0431060962708496,1
381,1016,23,0.0526695882931475,1
381,1017,23,0.0550413930966983,1
381,1018,23,0.051782835122184,1
381,1019,23,0.0433201921562206,1
382,1015,23,0.0465202925138696,1
382,1016,23,0.0557145586153638,1
382,1017,23,0.0538780259656493,1
382,1018,23,0.0438316449398109,1
383,1014,23,0.0465468990559149,1
383,1015,23,0.0487533605019595,1
383,1016,23,0.0523717150517528,1
383,1017,23,0.0475373588074456,1
384,1014,23,0.0538418440962392,1
384,1015,23,0.0533004839589964,1
384,1016,23,0.051075742342528,1
384,1017,23,0.042977591701034,1
385,1014,23,0.0572132081860214,1
385,1015,23,0.0559965090227158,1
385,1016,23,0.0519622468036898,1
386,1014,23,0.0544785087481402,1
386,1015,23,0.0526548441272955,1
386,1016,23,0.0481585926381726,1
387,1013,23,0.0527084951569065,1
387,1014,23,0.0528013936745701,1
387,1015,23,0.0504839481828916,1
387,1016,23,0.0442936125829685,1
388,1013,23,0.0551086150307055,1
388,1014,23,0.0550048760097294,1
388,1015,23,0.0541747854196712,1
388,1016,23,0.0459751801026622,1
389,1013,23,0.0600268729859372,1
389,1014,23,0.0590130939871313,1
389,1015,23,0.0589861414140575,1
389,1016,23,0.0493717828305805,1
390,1013,23,0.0703364079055287,1
390,1014,23,0.068702346661324,1
390,1015,23,0.0665238758814383,1
390,1016,23,0.0543019842630279,1
391,1013,23,0.0981887589744229,1
391,1014,23,0.0992791135584732,1
391,1015,23,0.0841074209641341,1
391,1016,23,0.0627657247961596,1
391,1017,23,0.0431468279076101,1
392,1012,23,0.100389981294428,1
392,1013,23,0.155022225140417,1
392,1014,23,0.153790462813905,1
392,1015,23,0.108098644276383,1
392,1016,23,0.0709320300334171,1
392,1017,23,0.0517490862834425,1
393,1012,23,0.110563077260856,1
393,1013,23,0.182890785600299,1
393,1014,23,0.176216074144761,1
393,1015,23,0.114643788738714,1
393,1016,23,0.0749366633456339,1
393,1017,23,0.0603911679645858,1
394,1013,23,0.136907025009479,1
394,1014,23,0.131038090057516,1
394,1015,23,0.0911671838532925,1
394,1016,23,0.0708343573689081,1
394,1017,23,0.0636995544071939,1
394,1018,23,0.0453940101769456,1
395,1014,23,0.0733042727824883,1
395,1015,23,0.064087190260057,1
395,1016,23,0.0610167758437815,1
395,1017,23,0.0590479025458973,1
395,1018,23,0.0470057307928773,1
396,1015,23,0.0515098707081015,1
396,1016,23,0.0534783925682224,1
396,1017,23,0.0543308237865535,1
396,1018,23,0.048785973926389,1
397,1016,23,0.0489352971286259,1
397,1017,23,0.0505331873168901,1
397,1018,23,0.0486605863391967,1
398,1017,23,0.0495574122571284,1
398,1018,23,0.04851320415476,1
398,1019,23,0.0411060828837741,1
399,1017,23,0.0495356771831552,1
399,1018,23,0.0472265310294241,1
399,1019,23,0.0418085529051597,1
400,1018,23,0.0491541671608422,1
403,1022,23,0.0469398064752267,1
377,1018,24,0.044333822469819,1
377,1019,24,0.0481984781209339,1
377,1020,24,0.0498271272235846,1
377,1021,24,0.0445352260452019,1
378,1017,24,0.0437687862408028,1
378,1018,24,0.052571272227195,1
378,1019,24,0.0591335073782899,1
378,1020,24,0.0570832032472936,1
378,1021,24,0.0455182677565606,1
379,1017,24,0.0486555634825497,1
379,1018,24,0.0619577153111031,1
379,1019,24,0.0668088378400847,1
379,1020,24,0.0569320741956271,1
379,1021,24,0.0410432971756861,1
380,1016,24,0.0442632591736935,1
380,1017,24,0.0533782003652877,1
380,1018,24,0.0641477673169714,1
380,1019,24,0.0631710244516771,1
380,1020,24,0.0476392000645002,1
381,1015,24,0.0424079462305845,1
381,1016,24,0.0507090846207634,1
381,1017,24,0.0544339302195558,1
381,1018,24,0.0547295218188567,1
381,1019,24,0.0478215367895432,1
382,1015,24,0.0455418789675161,1
382,1016,24,0.0543852425725089,1
382,1017,24,0.0527479481008822,1
382,1018,24,0.0437390140555209,1
383,1014,24,0.0452312404252133,1
383,1015,24,0.0470783540549689,1
383,1016,24,0.0513352548003803,1
383,1017,24,0.0470034653709881,1
384,1014,24,0.0509562913501672,1
384,1015,24,0.0516602374101585,1
384,1016,24,0.0502621909542818,1
384,1017,24,0.0429013242996743,1
385,1014,24,0.0537523085676331,1
385,1015,24,0.0546044586357536,1
385,1016,24,0.0510235132841744,1
386,1014,24,0.0524242901411348,1
386,1015,24,0.0522105078463833,1
386,1016,24,0.047969605629302,1
387,1014,24,0.0519257134965164,1
387,1015,24,0.0498297873371156,1
387,1016,24,0.0436838275132212,1
388,1013,24,0.0547159833548694,1
388,1014,24,0.0557956055703037,1
388,1015,24,0.0543465087242641,1
388,1016,24,0.0450750236360819,1
389,1013,24,0.060569249589326,1
389,1014,24,0.0622555344851495,1
389,1015,24,0.063185022488124,1
389,1016,24,0.0510747366898516,1
390,1013,24,0.0729524511410676,1
390,1014,24,0.077567980607037,1
390,1015,24,0.079741385276397,1
390,1016,24,0.0635361791011619,1
391,1013,24,0.11292253308208,1
391,1014,24,0.124459759056865,1
391,1015,24,0.110133166148442,1
391,1016,24,0.0802546628329889,1
391,1017,24,0.0489581568034415,1
392,1012,24,0.122493448551285,1
392,1013,24,0.209390923104379,1
392,1014,24,0.215791394156418,1
392,1015,24,0.149062532737779,1
392,1016,24,0.0919333398041136,1
392,1017,24,0.0580794698320201,1
393,1012,24,0.154100766138649,1
393,1013,24,0.27825592056927,1
393,1014,24,0.267853514165688,1
393,1015,24,0.161040872579524,1
393,1016,24,0.0933993435099329,1
393,1017,24,0.0668557737050502,1
393,1018,24,0.0427162788004869,1
394,1012,24,0.125735791728076,1
394,1013,24,0.216373439973176,1
394,1014,24,0.200547278349176,1
394,1015,24,0.12298224981935,1
394,1016,24,0.0852220788211969,1
394,1017,24,0.0720447468726797,1
394,1018,24,0.0502321943895048,1
395,1013,24,0.103834395778352,1
395,1014,24,0.0980216259876915,1
395,1015,24,0.0778375495916531,1
395,1016,24,0.0722606918613589,1
395,1017,24,0.067280234828767,1
395,1018,24,0.0510392360690287,1
396,1015,24,0.055216441543205,1
396,1016,24,0.0601300226728181,1
396,1017,24,0.0588572772963765,1
396,1018,24,0.0500987832078409,1
397,1016,24,0.0529270840389122,1
397,1017,24,0.0532575869249408,1
397,1018,24,0.0494848700960591,1
398,1017,24,0.0512366089236039,1
398,1018,24,0.0501470383161023,1
398,1019,24,0.0435799803575487,1
399,1017,24,0.0518462453081437,1
399,1018,24,0.0530795431473442,1
399,1019,24,0.0470727959315748,1
377,1019,25,0.0456672935883824,1
377,1020,25,0.0471112918834875,1
377,1021,25,0.0436305522516801,1
378,1018,25,0.0519058869999343,1
378,1019,25,0.0562414395167607,1
378,1020,25,0.0547213522425449,1
378,1021,25,0.0449467731828029,1
379,1017,25,0.0494358472314533,1
379,1018,25,0.063106430190792,1
379,1019,25,0.0666718149595615,1
379,1020,25,0.058493577058558,1
379,1021,25,0.0431714312544049,1
380,1016,25,0.0447329097870292,1
380,1017,25,0.0547274294124817,1
380,1018,25,0.0694654964675855,1
380,1019,25,0.0683125481145332,1
380,1020,25,0.0535637000301999,1
381,1016,25,0.0484569416722313,1
381,1017,25,0.0541299852149592,1
381,1018,25,0.0594928876349878,1
381,1019,25,0.0531410880097913,1
382,1015,25,0.0446992014987988,1
382,1016,25,0.0513825691367832,1
382,1017,25,0.0517537577023263,1
382,1018,25,0.0464530868000668,1
383,1015,25,0.0460295177875953,1
383,1016,25,0.0497775744989665,1
383,1017,25,0.0469496305123932,1
384,1014,25,0.0474006495175419,1
384,1015,25,0.049331486435973,1
384,1016,25,0.0489214504807539,1
384,1017,25,0.0432762272920382,1
385,1014,25,0.0495913341113841,1
385,1015,25,0.0517738220952404,1
385,1016,25,0.0490698653515411,1
386,1014,25,0.0501488549790015,1
386,1015,25,0.0508992448910898,1
386,1016,25,0.047111756862682,1
387,1014,25,0.0507032453471587,1
387,1015,25,0.0492842423871227,1
387,1016,25,0.0441217649234748,1
388,1014,25,0.0549351075036223,1
388,1015,25,0.0532473844163369,1
388,1016,25,0.0450067852359287,1
389,1013,25,0.0602379086594005,1
389,1014,25,0.0641447827993512,1
389,1015,25,0.0650651496406857,1
389,1016,25,0.0525738025790904,1
390,1013,25,0.0743639008925611,1
390,1014,25,0.0857646500670392,1
390,1015,25,0.0904734186749659,1
390,1016,25,0.0718751646350752,1
390,1017,25,0.0438384952728269,1
391,1013,25,0.119519009084785,1
391,1014,25,0.142353564210426,1
391,1015,25,0.133433522292227,1
391,1016,25,0.0989639657993312,1
391,1017,25,0.0567930670434253,1
392,1012,25,0.132775468597381,1
392,1013,25,0.228732543707828,1
392,1014,25,0.247784190309453,1
392,1015,25,0.182596529464499,1
392,1016,25,0.115052851481666,1
392,1017,25,0.0655301126149331,1
393,1011,25,0.0737878943985968,1
393,1012,25,0.1787679556582,1
393,1013,25,0.324354347192136,1
393,1014,25,0.32354766235711,1
393,1015,25,0.204719806997734,1
393,1016,25,0.115982377331784,1
393,1017,25,0.0718969645898663,1
393,1018,25,0.0469027433080411,1
394,1012,25,0.15454843296821,1
394,1013,25,0.268503187421564,1
394,1014,25,0.25668843374851,1
394,1015,25,0.161979092459231,1
394,1016,25,0.103860456240181,1
394,1017,25,0.0771420001908361,1
394,1018,25,0.0560694512821617,1
395,1013,25,0.127399562980113,1
395,1014,25,0.122612277769141,1
395,1015,25,0.0979965171111911,1
395,1016,25,0.0872637970573002,1
395,1017,25,0.0751510511946851,1
395,1018,25,0.0574989379010121,1
396,1015,25,0.0638917205761382,1
396,1016,25,0.0725540721061187,1
396,1017,25,0.0671604594323171,1
396,1018,25,0.0544555030914845,1
396,1019,25,0.0410180720543871,1
397,1016,25,0.0616404210782379,1
397,1017,25,0.0583387660204797,1
397,1018,25,0.0517418412587848,1
397,1019,25,0.0440402421758708,1
398,1017,25,0.05264992399861,1
398,1018,25,0.0533934797978867,1
398,1019,25,0.0485987549198043,1
399,1020,25,0.0457700810240304,1
401,1023,25,0.0473808770883081,1
376,1022,26,0.0417356917467361,1
377,1019,26,0.0437463158508942,1
377,1020,26,0.0452387368630401,1
377,1021,26,0.0438167385719144,1
378,1018,26,0.0518916078132768,1
378,1019,26,0.0530936222848135,1
378,1020,26,0.052197120770971,1
378,1021,26,0.0453979246529547,1
379,1017,26,0.0512602201345594,1
379,1018,26,0.0634955583024652,1
379,1019,26,0.065772950702603,1
379,1020,26,0.0588092871181212,1
379,1021,26,0.0446600675521774,1
380,1016,26,0.045876588293234,1
380,1017,26,0.0552666647029406,1
380,1018,26,0.0718857348016468,1
380,1019,26,0.0721498159504214,1
380,1020,26,0.0580523929040455,1
381,1016,26,0.0469358000847257,1
381,1017,26,0.0538080411901495,1
381,1018,26,0.063583996263903,1
381,1019,26,0.0591441370189444,1
381,1020,26,0.0452914471207926,1
382,1015,26,0.0447743875531947,1
382,1016,26,0.0485861031603273,1
382,1017,26,0.0511736204629601,1
382,1018,26,0.05038216639992,1
382,1019,26,0.0420611555559131,1
383,1015,26,0.0456107499556431,1
383,1016,26,0.0481062392249182,1
383,1017,26,0.0473178129333768,1
383,1018,26,0.0418068795207332,1
384,1015,26,0.0468534555134292,1
384,1016,26,0.0472192697845619,1
384,1017,26,0.0441522751280596,1
385,1014,26,0.0471081776042317,1
385,1015,26,0.048846204952275,1
385,1016,26,0.0472747266636026,1
385,1017,26,0.0414407705825528,1
386,1014,26,0.0480665213509363,1
386,1015,26,0.0492680167759303,1
386,1016,26,0.0465750194837096,1
387,1014,26,0.0490611334748081,1
387,1015,26,0.0482764216100876,1
387,1016,26,0.0447875907996232,1
388,1014,26,0.0529148377845467,1
388,1015,26,0.0513281287238886,1
388,1016,26,0.0453032527262703,1
389,1013,26,0.057894386485689,1
389,1014,26,0.0629583991981769,1
389,1015,26,0.0635800547542198,1
389,1016,26,0.0530132511717259,1
390,1013,26,0.0727971589035903,1
390,1014,26,0.0883898414978922,1
390,1015,26,0.0941895053633512,1
390,1016,26,0.075682571074557,1
390,1017,26,0.0483657841231794,1
391,1013,26,0.115913603664884,1
391,1014,26,0.143872402528899,1
391,1015,26,0.14301764100786,1
391,1016,26,0.108588040285278,1
391,1017,26,0.0628592613085319,1
392,1012,26,0.127569085743634,1
392,1013,26,0.209706438521489,1
392,1014,26,0.236355326113915,1
392,1015,26,0.192372511571926,1
392,1016,26,0.125976207598547,1
392,1017,26,0.0704694406157553,1
393,1012,26,0.173898239368175,1
393,1013,26,0.303676398010771,1
393,1014,26,0.317004540013601,1
393,1015,26,0.222396845338923,1
393,1016,26,0.127257063077218,1
393,1017,26,0.0734443180277754,1
393,1018,26,0.049777412296922,1
394,1012,26,0.159523883364359,1
394,1013,26,0.269991596636475,1
394,1014,26,0.27365072337354,1
394,1015,26,0.190374225636626,1
394,1016,26,0.116214088359196,1
394,1017,26,0.0786475109079794,1
394,1018,26,0.0598566689738285,1
394,1019,26,0.0416387354745906,1
395,1013,26,0.132584956889292,1
395,1014,26,0.135997677093706,1
395,1015,26,0.114698191304465,1
395,1016,26,0.0958426794151418,1
395,1017,26,0.0790240899881372,1
395,1018,26,0.0629426926335271,1
395,1019,26,0.0448941791698491,1
396,1014,26,0.0660972358435895,1
396,1015,26,0.078534715606181,1
396,1016,26,0.0863410188122364,1
396,1017,26,0.077016699111401,1
396,1018,26,0.0617917231454186,1
396,1019,26,0.0479645827726549,1
397,1015,26,0.0681486916091022,1
397,1016,26,0.0733078196005297,1
397,1017,26,0.0652279356126224,1
397,1018,26,0.0567228011177148,1
397,1019,26,0.0500684135783614,1
398,1017,26,0.0548203495570846,1
398,1018,26,0.0583359545183737,1
398,1019,26,0.05761488532921,1
398,1020,26,0.0482937556019179,1
399,1020,26,0.0579515248592584,1
399,1021,26,0.0410538889691969,1
400,1022,26,0.0425745304337317,1
376,1022,27,0.0420512125705806,1
377,1019,27,0.043128004360337,1
377,1020,27,0.0448244241805791,1
377,1021,27,0.0441671003949339,1
377,1022,27,0.0417778291345496,1
378,1018,27,0.0496023692571501,1
378,1019,27,0.0493782979460377,1
378,1020,27,0.0499329856846098,1
378,1021,27,0.0467056732306158,1
379,1017,27,0.051994119505449,1
379,1018,27,0.0581666912781236,1
379,1019,27,0.0598552091554274,1
379,1020,27,0.0552612904085303,1
379,1021,27,0.0457523090866796,1
380,1016,27,0.0472091159365715,1
380,1017,27,0.0541810842657356,1
380,1018,27,0.0658789281117943,1
380,1019,27,0.0680225795194442,1
380,1020,27,0.0570078603975879,1
380,1021,27,0.041752039009462,1
381,1016,27,0.0461793600363748,1
381,1017,27,0.0521618580464801,1
381,1018,27,0.060752035073359,1
381,1019,27,0.0588459772206044,1
381,1020,27,0.047238377185413,1
382,1016,27,0.0465766631310946,1
382,1017,27,0.0497279082329173,1
382,1018,27,0.0516351555673321,1
382,1019,27,0.0459488330838882,1
383,1015,27,0.0455384997582541,1
383,1016,27,0.0464839916962934,1
383,1017,27,0.046699206775772,1
383,1018,27,0.044684049124468,1
384,1015,27,0.046063677538183,1
384,1016,27,0.046205669208005,1
384,1017,27,0.0444115713165192,1
385,1015,27,0.0467279597915405,1
385,1016,27,0.0460321454607174,1
385,1017,27,0.0425674286875467,1
386,1014,27,0.0467618167649784,1
386,1015,27,0.0480391470525466,1
386,1016,27,0.0467149133404218,1
386,1017,27,0.0426958467496051,1
387,1014,27,0.0485572311963928,1
387,1015,27,0.04853234399602,1
387,1016,27,0.0466003878834813,1
387,1017,27,0.0427900726206669,1
388,1014,27,0.0528775150940897,1
388,1015,27,0.0517260589998475,1
388,1016,27,0.04747621945011,1
388,1017,27,0.0425453016252991,1
389,1014,27,0.0613703546740184,1
389,1015,27,0.0615514856971967,1
389,1016,27,0.053607537836114,1
389,1017,27,0.0439317911854997,1
390,1014,27,0.0847974392752311,1
390,1015,27,0.0894393049465049,1
390,1016,27,0.0737039494337938,1
390,1017,27,0.0510933899249779,1
391,1013,27,0.105756014213917,1
391,1014,27,0.130589547336915,1
391,1015,27,0.13379260517851,1
391,1016,27,0.104194484317311,1
391,1017,27,0.0644002726464981,1
392,1012,27,0.111730239919748,1
392,1013,27,0.168778494033171,1
392,1014,27,0.195095126957487,1
392,1015,27,0.174288162269867,1
392,1016,27,0.120160604678841,1
392,1017,27,0.0711575503494611,1
392,1018,27,0.0455053240334034,1
393,1012,27,0.147238181461613,1
393,1013,27,0.236451111827972,1
393,1014,27,0.259577468431806,1
393,1015,27,0.205895101385794,1
393,1016,27,0.124152234793818,1
393,1017,27,0.0731822211506795,1
393,1018,27,0.0528871174551286,1
394,1012,27,0.144195779338435,1
394,1013,27,0.226806772899923,1
394,1014,27,0.246329994912479,1
394,1015,27,0.194082229256456,1
394,1016,27,0.119765339923148,1
394,1017,27,0.0776457781143506,1
394,1018,27,0.0611053814139987,1
394,1019,27,0.0480405149564559,1
395,1013,27,0.125912883920345,1
395,1014,27,0.138288975615799,1
395,1015,27,0.125410219784203,1
395,1016,27,0.0985710259396105,1
395,1017,27,0.079331646691593,1
395,1018,27,0.0665467788101325,1
395,1019,27,0.0515860624151737,1
396,1014,27,0.0827174900172211,1
396,1015,27,0.0954272691655124,1
396,1016,27,0.0964075318151741,1
396,1017,27,0.0878667182771946,1
396,1018,27,0.0754132616132122,1
396,1019,27,0.0578176649186044,1
397,1014,27,0.0690500645910168,1
397,1015,27,0.0825259834699248,1
397,1016,27,0.0855568368075281,1
397,1017,27,0.080911629774136,1
397,1018,27,0.0750659816290397,1
397,1019,27,0.0624294799577531,1
397,1020,27,0.0463127441843646,1
398,1015,27,0.06083349834688,1
398,1018,27,0.0705825008475598,1
398,1020,27,0.0574936663345634,1
398,1021,27,0.0430118866199923,1
399,1021,27,0.0506284053237912,1
400,1022,27,0.0468098177567033,1
377,1020,28,0.0446750415042592,1
377,1021,28,0.0439413611061297,1
377,1022,28,0.0418297067551399,1
378,1019,28,0.0460108591457342,1
378,1020,28,0.047472002196951,1
378,1021,28,0.0468137214192428,1
378,1022,28,0.0421122464965872,1
379,1018,28,0.0525310136797312,1
379,1019,28,0.0537159428692391,1
379,1020,28,0.0511980210571992,1
379,1021,28,0.0457887558860959,1
380,1017,28,0.0539823002533726,1
380,1018,28,0.0599640737610121,1
380,1019,28,0.0624492145398432,1
380,1020,28,0.0540716086991162,1
380,1021,28,0.0425931404149794,1
381,1016,28,0.0472878704359481,1
381,1017,28,0.0520805191278599,1
381,1018,28,0.0578303761521644,1
381,1019,28,0.057517185631027,1
381,1020,28,0.0478350049659778,1
382,1016,28,0.0465162590896944,1
382,1017,28,0.049938873618828,1
382,1018,28,0.0525464066537614,1
382,1019,28,0.0493458629438572,1
382,1020,28,0.0413390969342775,1
383,1016,28,0.0461343219353308,1
383,1017,28,0.0475141422881319,1
383,1018,28,0.0475534222165934,1
383,1019,28,0.0430855777122107,1
384,1015,28,0.0460302044429173,1
384,1016,28,0.0458255757502147,1
384,1017,28,0.0456530684690731,1
384,1018,28,0.0443880168762793,1
385,1015,28,0.0454334198670428,1
385,1016,28,0.0452093972165437,1
385,1017,28,0.0445072245655732,1
385,1018,28,0.0422893197652837,1
386,1015,28,0.0470506445390205,1
386,1016,28,0.0470060119430879,1
386,1017,28,0.0458251648383685,1
386,1018,28,0.0418910975256446,1
387,1015,28,0.0494730455670095,1
387,1016,28,0.0486426251661273,1
387,1017,28,0.046464624772171,1
387,1018,28,0.0411261580901579,1
388,1015,28,0.0534098946447979,1
388,1016,28,0.0500990373243774,1
388,1017,28,0.0462091565519634,1
389,1014,28,0.0595957129177795,1
389,1015,28,0.0595525888008615,1
389,1016,28,0.0538879419173078,1
389,1017,28,0.0469468190102872,1
390,1014,28,0.0776799324582036,1
390,1015,28,0.0799232191751018,1
390,1016,28,0.0685862856916948,1
390,1017,28,0.0527305978888474,1
390,1018,28,0.0410776110182162,1
391,1013,28,0.0940519688430202,1
391,1014,28,0.111927023440228,1
391,1015,28,0.113836920074705,1
391,1016,28,0.0918531687402143,1
391,1017,28,0.0631336314736674,1
391,1018,28,0.0447885423849514,1
392,1012,28,0.0946193948488264,1
392,1013,28,0.128944753724094,1
392,1014,28,0.149162860109085,1
392,1015,28,0.140723422848965,1
392,1016,28,0.103898908938215,1
392,1017,28,0.0684178875290158,1
392,1018,28,0.0492724178580731,1
393,1012,28,0.114843502709466,1
393,1013,28,0.163641436333275,1
393,1014,28,0.186055217728346,1
393,1015,28,0.163957881708774,1
393,1016,28,0.10940291091682,1
393,1017,28,0.0704873909753551,1
393,1018,28,0.0547790421030659,1
393,1019,28,0.0465505810423268,1
394,1012,28,0.116082488433697,1
394,1013,28,0.164844629473003,1
394,1014,28,0.188394971407889,1
394,1015,28,0.165164416210619,1
394,1016,28,0.110010736045196,1
394,1017,28,0.0732601051657502,1
394,1018,28,0.060381143878231,1
394,1019,28,0.0524215867737252,1
395,1013,28,0.109283757294875,1
395,1014,28,0.125614540293021,1
395,1015,28,0.120718266121564,1
395,1016,28,0.0943110595755566,1
395,1017,28,0.0756053412743994,1
395,1018,28,0.06720687625074,1
395,1019,28,0.0553927497589245,1
395,1020,28,0.0424035748854832,1
396,1014,28,0.09043337099016,1
396,1015,28,0.0993514124164757,1
396,1016,28,0.094228239211596,1
396,1017,28,0.0890103508261534,1
396,1018,28,0.0834750546664144,1
396,1019,28,0.0621465941852773,1
396,1020,28,0.0449751855742779,1
397,1015,28,0.0852691498545329,1
397,1018,28,0.0904902660606625,1
397,1019,28,0.0693181250966183,1
397,1020,28,0.0505425842220059,1
397,1021,28,0.0412565631272623,1
398,1020,28,0.0631549556357944,1
398,1021,28,0.0483699635291947,1
399,1021,28,0.0569342639232289,1
399,1022,28,0.0410638184376924,1
377,1021,29,0.0445453798931923,1
377,1022,29,0.0421826638108726,1
378,1020,29,0.04604761953577,1
378,1021,29,0.0465691261427567,1
378,1022,29,0.0431977242058307,1
378,1023,29,0.0422366284311031,1
379,1019,29,0.0482978160597672,1
379,1020,29,0.0479966447101328,1
379,1021,29,0.0457494489239603,1
379,1022,29,0.0411420620006286,1
380,1018,29,0.0535149258753958,1
380,1019,29,0.0548914048660786,1
380,1020,29,0.0507251804703202,1
380,1021,29,0.0442828369604738,1
381,1017,29,0.0504885439074879,1
381,1018,29,0.0535185267607854,1
381,1019,29,0.0536411460997502,1
381,1020,29,0.0482368226842717,1
381,1021,29,0.0417399955076522,1
382,1017,29,0.0500149139373253,1
382,1018,29,0.0517605485612592,1
382,1019,29,0.0503898872172418,1
382,1020,29,0.0456733869785237,1
383,1016,29,0.0474740675696519,1
383,1017,29,0.0487181626582865,1
383,1018,29,0.0493784439278778,1
383,1019,29,0.0475188894013032,1
383,1020,29,0.0434657333474514,1
384,1016,29,0.0477718759302287,1
384,1017,29,0.0481027302540205,1
384,1018,29,0.0480810870945392,1
384,1019,29,0.045856788830326,1
384,1020,29,0.0416876150607237,1
385,1016,29,0.0474308893853857,1
385,1017,29,0.0477444205308168,1
385,1018,29,0.0471530102493526,1
385,1019,29,0.0441390232210177,1
386,1015,29,0.0483972350996228,1
386,1016,29,0.0492851128714286,1
386,1017,29,0.0490369761836359,1
386,1018,29,0.0470708657272443,1
386,1019,29,0.0429870724105395,1
387,1015,29,0.0514318190842514,1
387,1016,29,0.0509932788230654,1
387,1017,29,0.0489267598943463,1
387,1018,29,0.045475608618837,1
388,1015,29,0.0551622282131728,1
388,1016,29,0.0524622021656871,1
388,1017,29,0.0484805907303305,1
388,1018,29,0.0440907032319385,1
389,1015,29,0.0567425140728657,1
389,1016,29,0.0533476415000895,1
389,1017,29,0.0484349200413126,1
389,1018,29,0.0432912093542222,1
390,1016,29,0.0607638217552649,1
390,1017,29,0.0520240403759385,1
390,1018,29,0.0442642080556542,1
391,1014,29,0.0885056213173107,1
391,1015,29,0.0870032194726885,1
391,1016,29,0.0742612215916095,1
391,1017,29,0.0588804884089554,1
391,1018,29,0.0475717132004868,1
391,1019,29,0.0412460983920198,1
392,1013,29,0.0967998120532469,1
392,1014,29,0.108008265297145,1
392,1015,29,0.102894488997381,1
392,1016,29,0.082332216907474,1
392,1017,29,0.0627641838767361,1
392,1018,29,0.0510531854448622,1
392,1019,29,0.0446736330498388,1
393,1013,29,0.109087319805423,1
393,1014,29,0.123819071794258,1
393,1015,29,0.116455682897858,1
393,1017,29,0.0648474799035992,1
393,1018,29,0.0547313601086953,1
393,1019,29,0.0497379106923328,1
393,1020,29,0.042592959289363,1
394,1013,29,0.110539968876239,1
394,1014,29,0.127908542182523,1
394,1015,29,0.121096056310321,1
394,1017,29,0.0663925571061494,1
394,1018,29,0.0577988008208202,1
394,1019,29,0.0533790059687757,1
394,1020,29,0.045322357423754,1
395,1014,29,0.103840505388698,1
395,1015,29,0.103022563731779,1
395,1018,29,0.0643774237851521,1
395,1019,29,0.0557051941506569,1
395,1020,29,0.0470529856551972,1
396,1015,29,0.0897059380741141,1
396,1018,29,0.0812755679082866,1
396,1019,29,0.0610342125635735,1
396,1020,29,0.0479235997227253,1
396,1021,29,0.0409904625630328,1
397,1019,29,0.069584866358924,1
397,1020,29,0.0520549506788999,1
397,1021,29,0.0442212353273112,1
398,1020,29,0.0604805304776777,1
398,1021,29,0.0481870753172002,1
378,1021,30,0.045893365391378,1
378,1022,30,0.043654390545498,1
379,1020,30,0.0454420706427535,1
379,1021,30,0.0457048487684366,1
379,1022,30,0.0428728605442186,1
380,1019,30,0.0489725062776517,1
380,1020,30,0.0487535443309434,1
380,1021,30,0.0469972097788023,1
380,1022,30,0.0428177929500849,1
381,1018,30,0.0503594256732704,1
381,1019,30,0.050357852313438,1
381,1020,30,0.0494247039509909,1
381,1021,30,0.04699847495475,1
381,1022,30,0.0421442786970236,1
382,1018,30,0.0500136595748472,1
382,1019,30,0.0498543717603386,1
382,1020,30,0.0488179547628446,1
382,1021,30,0.0461996406986816,1
382,1022,30,0.0410632831709453,1
383,1017,30,0.0485410380256092,1
383,1018,30,0.0488767908511472,1
383,1019,30,0.0486718107206814,1
383,1020,30,0.0471675327390769,1
383,1021,30,0.0442339925181171,1
384,1017,30,0.0494630809547377,1
384,1018,30,0.0500378384929587,1
384,1019,30,0.0490994347842674,1
384,1020,30,0.046340664562971,1
384,1021,30,0.0429909679629768,1
385,1017,30,0.0515440574923633,1
385,1018,30,0.0523572250024374,1
385,1019,30,0.0509208447966925,1
385,1020,30,0.0472817446053979,1
385,1021,30,0.0429505039595898,1
386,1016,30,0.0519400954111355,1
386,1017,30,0.0527234718123557,1
386,1018,30,0.0543136519967677,1
386,1019,30,0.0546700098887017,1
386,1020,30,0.0509740903211921,1
386,1021,30,0.0442715017409254,1
387,1016,30,0.0530649719970065,1
387,1017,30,0.0509012345695032,1
387,1018,30,0.0517203062339998,1
387,1019,30,0.0530150678346252,1
387,1020,30,0.0497073680473391,1
387,1021,30,0.0423433573764343,1
388,1016,30,0.0551307718299946,1
388,1017,30,0.0503710014925183,1
388,1018,30,0.0482160554158311,1
388,1019,30,0.0470113862374982,1
388,1020,30,0.0432571685518005,1
389,1016,30,0.0549964469101462,1
389,1017,30,0.0501249950582444,1
389,1018,30,0.045698198484609,1
389,1019,30,0.0421623344879524,1
390,1017,30,0.0519100339655407,1
390,1018,30,0.0462374554020072,1
390,1019,30,0.0421544028079726,1
391,1017,30,0.0562628772203189,1
391,1018,30,0.0495870519774073,1
391,1019,30,0.0448234212312701,1
391,1020,30,0.0414860925371748,1
392,1017,30,0.0596541813481144,1
392,1018,30,0.0529018454007762,1
392,1019,30,0.0478279221433646,1
392,1020,30,0.0424068000028028,1
393,1018,30,0.0551621633323549,1
393,1019,30,0.0514183509078167,1
393,1020,30,0.0454772738931614,1
394,1019,30,0.0525089974555473,1
394,1020,30,0.04661702440652,1
395,1019,30,0.0532620150407577,1
395,1020,30,0.0474998576947396,1
395,1021,30,0.041431598056932,1
396,1020,30,0.0478323556659164,1
396,1021,30,0.0428925572791649,1
