x,y,z,signal,cytoplasm.p
1,127,1,0.0753053702198949,1
1,128,1,0.071522969928952,1
1,129,1,0.0622900835206443,1
1,130,1,0.0522815901890515,1
1,131,1,0.0468569158237135,1
1,132,1,0.0417442154641786,1
2,127,1,0.0781650138927133,1
2,128,1,0.0716579760973877,1
2,129,1,0.0618186162444093,1
2,130,1,0.050532203291153,1
2,131,1,0.043393045204542,1
3,128,1,0.0648731240468467,1
3,129,1,0.0554684332329238,1
3,130,1,0.0459228050624685,1
4,128,1,0.0617253230351039,1
4,129,1,0.0535364176463021,1
4,130,1,0.0455753358425773,1
5,129,1,0.0496679962043856,1
5,130,1,0.0434391078818342,1
6,130,1,0.0412400239254504,1
9,134,1,0.041263827075492,1
9,135,1,0.0422796984806729,1
9,136,1,0.0436513384436926,1
9,137,1,0.0457074656280891,1
9,138,1,0.0446190493584714,1
9,139,1,0.0422107572049932,1
10,133,1,0.0413736459697723,1
10,134,1,0.0432096947167204,1
10,135,1,0.047083555333865,1
10,136,1,0.054402225126576,1
10,137,1,0.0620168920236993,1
10,138,1,0.0607686175290495,1
10,139,1,0.0553634398494696,1
10,140,1,0.0474752246109032,1
10,141,1,0.0415529927704602,1
11,134,1,0.0456230773110309,1
11,135,1,0.051706216283061,1
11,136,1,0.0639709346479744,1
11,137,1,0.076944865232593,1
11,138,1,0.0776008211143289,1
11,139,1,0.0706182826185933,1
11,140,1,0.0582064632194537,1
11,141,1,0.0487771663553685,1
11,142,1,0.042305234489224,1
12,135,1,0.0519226478778739,1
12,136,1,0.0624094209715738,1
12,137,1,0.077183842911602,1
12,138,1,0.0847342183249901,1
12,139,1,0.0817883318250706,1
12,140,1,0.0673882343567807,1
12,141,1,0.0549548420857124,1
12,142,1,0.0477760174891002,1
12,143,1,0.0461522020073779,1
12,144,1,0.0443540301412057,1
13,136,1,0.0625375173329105,1
13,137,1,0.077937320069272,1
13,138,1,0.0875375130075226,1
13,139,1,0.0841235762877739,1
13,140,1,0.069260716386308,1
13,141,1,0.0580012884465344,1
13,142,1,0.0518467265075426,1
13,143,1,0.0503321919499861,1
13,144,1,0.0482986432901945,1
13,145,1,0.0451183045483097,1
14,137,1,0.074928942528312,1
14,138,1,0.0792280212120481,1
14,139,1,0.0722768850321424,1
14,140,1,0.0614858965971049,1
14,141,1,0.0559321364379583,1
14,145,1,0.0477293898080194,1
14,146,1,0.0447816542047917,1
14,147,1,0.0438539233906335,1
14,148,1,0.0425162890862592,1
15,140,1,0.0528045620211742,1
15,146,1,0.0461872592759456,1
15,147,1,0.0446729490978841,1
15,148,1,0.0430317536670854,1
15,149,1,0.0417137485134723,1
16,147,1,0.0460448188471336,1
16,148,1,0.0449229375923524,1
16,149,1,0.0447017453675312,1
16,150,1,0.0447814811892775,1
16,151,1,0.0450713470564049,1
16,152,1,0.0439184852111096,1
16,153,1,0.0417193120436013,1
17,150,1,0.049290216829098,1
17,151,1,0.0520789241410883,1
17,152,1,0.0554580685222754,1
17,153,1,0.0559077304369844,1
17,154,1,0.0498636713442276,1
18,151,1,0.0608732973218842,1
18,152,1,0.0743003717584354,1
18,153,1,0.0813599562253448,1
1,127,2,0.0749676980034961,1
1,128,2,0.0686617528963013,1
1,129,2,0.059652878325023,1
1,130,2,0.0500154275771331,1
1,131,2,0.0449683000974856,1
2,126,2,0.0815083656893972,1
2,127,2,0.0744527065119666,1
2,128,2,0.0625768297017809,1
2,129,2,0.0531385522511611,1
2,130,2,0.0436489162264936,1
3,126,2,0.0946501916103566,1
3,127,2,0.0799436241923095,1
3,128,2,0.0623371653674499,1
3,129,2,0.0535434896554457,1
3,130,2,0.0454151126629449,1
4,128,2,0.0613080258350226,1
4,129,2,0.0543831231324597,1
4,130,2,0.047437880293507,1
4,131,2,0.0411712908090612,1
5,128,2,0.0546925451594282,1
5,129,2,0.0524993031800165,1
5,130,2,0.0466265456665366,1
6,129,2,0.0498916782305911,1
6,130,2,0.0446165108964738,1
7,130,2,0.0423924234949186,1
9,134,2,0.042388671220954,1
9,135,2,0.0442869758159779,1
9,136,2,0.0449229402957198,1
9,137,2,0.0458555831284613,1
9,138,2,0.0440067285300939,1
9,139,2,0.0418997996653361,1
10,133,2,0.042289625245801,1
10,134,2,0.0449307368073291,1
10,135,2,0.0488654529282313,1
10,136,2,0.0533822662298717,1
10,137,2,0.0602600330182807,1
10,138,2,0.0599391757471697,1
10,139,2,0.055577611429128,1
10,140,2,0.0481805223545993,1
10,141,2,0.0417721899101331,1
11,133,2,0.0440640453259123,1
11,134,2,0.0469331453779295,1
11,135,2,0.0526762277635054,1
11,136,2,0.0629722620662534,1
11,137,2,0.0800661732437217,1
11,138,2,0.0839566866041094,1
11,139,2,0.0748924524750172,1
11,140,2,0.0585793873468737,1
11,141,2,0.0480194178771913,1
12,135,2,0.0529085551586868,1
12,136,2,0.0628961244265293,1
12,137,2,0.0848783348415961,1
12,138,2,0.0960815057055759,1
12,139,2,0.0874522001388103,1
12,140,2,0.0669179619689408,1
12,141,2,0.0539406467683254,1
12,142,2,0.0458089176002368,1
12,143,2,0.0436044323157685,1
12,144,2,0.0420563084181477,1
13,136,2,0.0649877630452184,1
13,137,2,0.0860653402172746,1
13,138,2,0.0962458704440798,1
13,139,2,0.086933764557201,1
13,140,2,0.0683592514899015,1
13,141,2,0.0571203150750926,1
13,144,2,0.0454165941082854,1
13,145,2,0.0428793540327364,1
14,137,2,0.0773891582596266,1
14,138,2,0.0808593304282298,1
14,139,2,0.07181536074124,1
14,140,2,0.061561374615181,1
14,146,2,0.0440412451251798,1
14,147,2,0.0429159738476669,1
15,147,2,0.044021110444713,1
15,148,2,0.0418932548128374,1
16,150,2,0.0456633791123733,1
16,151,2,0.044995831191185,1
16,152,2,0.0423519973386754,1
17,151,2,0.0496160591097123,1
17,152,2,0.0515127795314342,1
17,153,2,0.0538567342439313,1
17,154,2,0.0475536547061907,1
18,152,2,0.0805484269559209,1
18,153,2,0.0970647636863274,1
1,126,3,0.0748092266059451,1
1,127,3,0.071246193766822,1
1,128,3,0.0628072485195711,1
1,129,3,0.0566081621193432,1
1,130,3,0.0487925106687854,1
1,131,3,0.0435878606735477,1
2,126,3,0.094462340015798,1
2,127,3,0.0810274366272286,1
2,128,3,0.0623876642706613,1
2,129,3,0.0536856921879256,1
2,130,3,0.0459658588918339,1
3,125,3,0.101034031546092,1
3,126,3,0.108164173902392,1
3,127,3,0.0862338897685286,1
3,128,3,0.0622946143644228,1
3,129,3,0.0537830458550803,1
3,130,3,0.0470139922836811,1
4,126,3,0.100842027579192,1
4,127,3,0.0794233773545357,1
4,128,3,0.0618568526730508,1
4,129,3,0.0550141215262702,1
4,130,3,0.0491160659005713,1
4,131,3,0.0419052226203598,1
5,128,3,0.0561194095118912,1
5,129,3,0.0542272037137434,1
5,130,3,0.0491058525784978,1
5,131,3,0.042762479349517,1
6,129,3,0.0534557761964736,1
6,130,3,0.0481388742762869,1
6,131,3,0.0420834448202053,1
7,129,3,0.0505168427575316,1
7,130,3,0.0450664539613935,1
8,130,3,0.0420451948747268,1
9,134,3,0.0422771708321449,1
9,135,3,0.0457234371227451,1
9,136,3,0.0466410194956477,1
9,137,3,0.0462713664427932,1
9,138,3,0.0438591895503474,1
10,133,3,0.041514883400087,1
10,134,3,0.0450591846064291,1
10,135,3,0.0501704711048087,1
10,136,3,0.0536628541400493,1
10,137,3,0.060197612264793,1
10,138,3,0.0621629225244313,1
10,139,3,0.0551295553146603,1
10,140,3,0.0475562337186994,1
11,133,3,0.0439747693205776,1
11,134,3,0.0473305566073457,1
11,135,3,0.0529463374216034,1
11,136,3,0.0632455022238117,1
11,137,3,0.0897113880628119,1
11,138,3,0.102234867349438,1
11,139,3,0.0821551409354101,1
11,140,3,0.0577593100297007,1
11,141,3,0.046517945990958,1
12,134,3,0.0490354028238035,1
12,135,3,0.0532558675832683,1
12,136,3,0.0681103146053555,1
12,137,3,0.110234866830391,1
12,139,3,0.101384139252575,1
12,140,3,0.0654970288045744,1
12,141,3,0.0527008121867284,1
12,142,3,0.0442738320436324,1
13,136,3,0.0695482735776676,1
13,137,3,0.105901574328719,1
13,140,3,0.066874951393454,1
14,137,3,0.081428313573664,1
14,138,3,0.085379468871784,1
14,139,3,0.0737715498392383,1
14,146,3,0.0409903571317038,1
15,139,3,0.058867101333543,1
15,147,3,0.0428257084098603,1
16,150,3,0.04624365152011,1
16,151,3,0.0445438768209126,1
16,152,3,0.0411852672185689,1
17,151,3,0.0472181830308633,1
17,152,3,0.0477441610075455,1
17,153,3,0.0504406834908683,1
18,152,3,0.0948988797851009,1
1,125,4,0.0691363777056707,1
1,126,4,0.0764751389249698,1
1,127,4,0.0703160569556692,1
1,128,4,0.0605746563241453,1
1,129,4,0.0530571592651927,1
1,130,4,0.0459987750934132,1
1,131,4,0.041067194943587,1
2,125,4,0.0928924404936928,1
2,126,4,0.110547257154775,1
2,127,4,0.0887377378498341,1
2,128,4,0.063291070184868,1
2,129,4,0.0516390376029323,1
2,130,4,0.0441185830600337,1
3,125,4,0.108005843079946,1
3,126,4,0.124985899235592,1
3,127,4,0.0930534098027303,1
3,128,4,0.0603988671549684,1
3,129,4,0.0496368750387663,1
3,130,4,0.0430531778538066,1
4,126,4,0.108308122810218,1
4,127,4,0.0822951267066142,1
4,128,4,0.060743362670709,1
4,129,4,0.0525126578150199,1
4,130,4,0.0459996888315977,1
5,127,4,0.0606345575392073,1
5,128,4,0.0558804372396171,1
5,129,4,0.052807616826347,1
5,130,4,0.0467447314829497,1
5,131,4,0.0410412804635985,1
6,128,4,0.0546820074332655,1
6,129,4,0.05594883243508,1
6,130,4,0.0489944846546917,1
6,131,4,0.0423078189084676,1
7,129,4,0.0526265182435776,1
7,130,4,0.0461638535209133,1
8,130,4,0.0425040536453634,1
9,135,4,0.0445512786408801,1
9,136,4,0.0449935441423565,1
9,137,4,0.0423678336649608,1
10,134,4,0.0430171662965432,1
10,135,4,0.0477004854036759,1
10,136,4,0.0494496073715682,1
10,137,4,0.0542135733352642,1
10,138,4,0.0583326888505429,1
10,139,4,0.0495190028129727,1
10,140,4,0.042654833962634,1
11,133,4,0.0413221549307216,1
11,134,4,0.0444738785285757,1
11,135,4,0.047454895287983,1
11,136,4,0.0578243746765151,1
11,137,4,0.095031420482459,1
11,139,4,0.0841756269238784,1
11,140,4,0.0514202324515338,1
11,141,4,0.041839303709444,1
12,134,4,0.0457242427262331,1
12,135,4,0.0470247516859713,1
12,136,4,0.069141362715174,1
12,140,4,0.0601555749015736,1
13,136,4,0.0694215667471794,1
14,137,4,0.0857273868506652,1
15,147,4,0.041409316902742,1
16,150,4,0.0448590894608724,1
16,151,4,0.0416690104862108,1
17,151,4,0.0426409710945576,1
17,152,4,0.0427883397621573,1
17,153,4,0.0454550413995848,1
18,152,4,0.104077168985204,1
1,125,5,0.0631304415001241,1
1,126,5,0.072415151461674,1
1,127,5,0.0681746439362344,1
1,128,5,0.0588647764375708,1
1,129,5,0.0490456593997555,1
1,130,5,0.0427275437324827,1
2,125,5,0.0942596955947741,1
2,126,5,0.118914276608726,1
2,127,5,0.0910500631636389,1
2,128,5,0.0610657608612435,1
2,129,5,0.0468118452822605,1
3,125,5,0.118812803009639,1
3,126,5,0.146907073021284,1
3,127,5,0.103168696960472,1
3,128,5,0.0595769623614265,1
3,129,5,0.0453715343803021,1
4,125,5,0.101729413338129,1
4,126,5,0.116623237609905,1
4,127,5,0.085149163595425,1
4,128,5,0.0593497064835055,1
4,129,5,0.0498596703604614,1
4,130,5,0.0443863299750157,1
5,126,5,0.0714189227240912,1
5,127,5,0.061413792381556,1
5,128,5,0.0569579724554111,1
5,129,5,0.0527295597957621,1
5,130,5,0.0464300270760629,1
6,128,5,0.0577621053116022,1
6,129,5,0.0574570627398373,1
6,130,5,0.0493434515401279,1
6,131,5,0.0420270742029802,1
7,129,5,0.0544605692020101,1
7,130,5,0.0473565738152957,1
7,131,5,0.0412145284674104,1
8,130,5,0.0434328549930158,1
9,135,5,0.0428888996230598,1
9,136,5,0.0428582515467371,1
10,134,5,0.0428880129185494,1
10,135,5,0.0463499533333904,1
10,136,5,0.0463608046501726,1
10,137,5,0.0466724650653562,1
10,138,5,0.0499578566647782,1
10,139,5,0.0422291509168481,1
11,133,5,0.0412342819730724,1
11,134,5,0.0444370073004761,1
11,135,5,0.0451258739770566,1
11,136,5,0.0550940546938374,1
11,137,5,0.0952336756185759,1
11,140,5,0.0470664592383667,1
11,141,5,0.041089146286953,1
12,134,5,0.044683032658322,1
12,135,5,0.0441419807049638,1
12,136,5,0.0736992942351144,1
12,142,5,0.041988172745956,1
15,146,5,0.0441820716436482,1
15,147,5,0.0432260122424048,1
15,148,5,0.0415939217530416,1
16,149,5,0.0475364072221174,1
16,150,5,0.0467250509682078,1
16,151,5,0.0416276003042305,1
17,150,5,0.047285150848334,1
17,151,5,0.0424396378067273,1
17,152,5,0.0412715316726093,1
18,151,5,0.0538999394618716,1
1,125,6,0.0605488175384443,1
1,126,6,0.067798054042607,1
1,127,6,0.0645907897613225,1
1,128,6,0.0536769711246623,1
1,129,6,0.0439350379297586,1
2,124,6,0.0665186691958075,1
2,125,6,0.0992606874062094,1
2,126,6,0.127675447030998,1
2,127,6,0.0928996638914113,1
2,128,6,0.055530691784367,1
3,125,6,0.140730311029125,1
3,126,6,0.183973084149469,1
3,127,6,0.125001362497174,1
3,128,6,0.0595200781043936,1
4,125,6,0.109197346858994,1
4,126,6,0.140199542685393,1
4,127,6,0.0989439716939698,1
4,128,6,0.0587400755057006,1
4,129,6,0.0466013719092184,1
4,130,6,0.0430304209069525,1
5,126,6,0.0780200701456799,1
5,127,6,0.0657802335744045,1
5,128,6,0.0557834025698167,1
5,129,6,0.0506491996259059,1
5,130,6,0.045835886393515,1
6,127,6,0.0598433305590296,1
6,128,6,0.0582344701058172,1
6,129,6,0.0545546950484777,1
6,130,6,0.0473577146363426,1
7,128,6,0.057724820468289,1
7,129,6,0.0533661325331712,1
7,130,6,0.0463415837078903,1
8,129,6,0.04766672034473,1
8,130,6,0.0433134175174921,1
10,134,6,0.0418226888133445,1
10,135,6,0.043415802151396,1
10,136,6,0.0415738898005365,1
11,134,6,0.0437558938816264,1
11,135,6,0.0422273126270096,1
11,136,6,0.0487585617808556,1
11,140,6,0.0411063883642914,1
12,134,6,0.0434120688010034,1
13,135,6,0.0416726897692553,1
15,146,6,0.0438796432281684,1
15,147,6,0.0424878902116213,1
16,148,6,0.0474059156772558,1
16,149,6,0.0471569085051572,1
16,150,6,0.0459152031933127,1
17,150,6,0.0460270577232525,1
1,125,7,0.0586914743664107,1
1,126,7,0.063809932898528,1
1,127,7,0.0594174528707902,1
1,128,7,0.0483138740621802,1
1,152,7,0.044233443734533,1
1,153,7,0.0454010118985364,1
1,158,7,0.04158731742646,1
1,159,7,0.0412641622930507,1
1,160,7,0.0417088770454002,1
2,124,7,0.0686290962179933,1
2,125,7,0.09883660475393,1
2,126,7,0.127939101047721,1
2,127,7,0.0906688288848017,1
2,128,7,0.0527688451309585,1
2,152,7,0.044576476728505,1
2,153,7,0.0468113803030661,1
2,154,7,0.0415858738282632,1
2,158,7,0.0411871866094297,1
2,159,7,0.0417287359823912,1
2,160,7,0.0425920022973,1
2,161,7,0.0425650767579003,1
3,125,7,0.152770439036383,1
3,126,7,0.207380763979416,1
3,127,7,0.141647942062641,1
3,128,7,0.0637804337533544,1
3,159,7,0.0410138061406147,1
3,160,7,0.0415865064162371,1
3,161,7,0.0419066554050868,1
4,125,7,0.116479667173516,1
4,126,7,0.16311166282875,1
4,127,7,0.115622472621809,1
4,128,7,0.0632775263141458,1
4,129,7,0.0465510406147864,1
4,130,7,0.0425792856570052,1
4,158,7,0.0411533458561963,1
4,159,7,0.0427160273873178,1
4,160,7,0.0439806356278564,1
4,161,7,0.0487575561281792,1
5,126,7,0.0894115089227994,1
5,127,7,0.0737482954727809,1
5,128,7,0.0575363200655521,1
5,129,7,0.0507059757482424,1
5,130,7,0.0462219759202198,1
5,159,7,0.0430088426282891,1
5,160,7,0.045416637362164,1
5,161,7,0.0589616002447131,1
6,127,7,0.0625858751691335,1
6,128,7,0.0587930182530502,1
6,129,7,0.0529125399222486,1
6,130,7,0.0469367408565842,1
6,160,7,0.0439936144947899,1
6,161,7,0.062429512398162,1
6,162,7,0.0814371157379497,1
7,128,7,0.0618197192183124,1
7,129,7,0.0528404519269041,1
7,130,7,0.0465409570543486,1
7,161,7,0.0530501196964581,1
7,162,7,0.0672179330234452,1
8,129,7,0.0481233947944995,1
8,130,7,0.0442999411660744,1
8,161,7,0.0433413946668141,1
9,130,7,0.0418152058923548,1
10,134,7,0.0420476143885584,1
10,135,7,0.0432744782133241,1
10,136,7,0.0410233192905291,1
11,133,7,0.041911078114169,1
11,134,7,0.0441486553190981,1
11,135,7,0.0435107552282909,1
11,136,7,0.0472457249380323,1
11,140,7,0.0410657783790644,1
11,159,7,0.0417100313832841,1
12,134,7,0.0438285063302484,1
12,135,7,0.0430776108884546,1
13,135,7,0.0432203189506401,1
14,145,7,0.0424440848461161,1
15,146,7,0.0464598289983864,1
15,147,7,0.0451202131257009,1
15,148,7,0.0434317655359497,1
15,149,7,0.0415579912968006,1
16,147,7,0.0517654849101492,1
16,148,7,0.0511288040380437,1
16,149,7,0.0494240659562823,1
16,150,7,0.0466417764385224,1
17,149,7,0.0476810103448571,1
17,150,7,0.0458019537257896,1
1,125,8,0.0581745256368766,1
1,126,8,0.0612912865840223,1
1,127,8,0.0545742620217884,1
1,128,8,0.0442457656831859,1
1,151,8,0.0518339990537782,1
1,152,8,0.0689338954866913,1
1,153,8,0.0690179323659863,1
1,154,8,0.0536856110869034,1
1,155,8,0.0443246283172589,1
1,156,8,0.0453037095953626,1
1,157,8,0.0476205954899873,1
1,158,8,0.047673716659586,1
1,159,8,0.0457328448413305,1
1,160,8,0.0461161553063382,1
1,161,8,0.0458322530677165,1
2,124,8,0.0704600815577832,1
2,125,8,0.093515642375894,1
2,126,8,0.118095113029738,1
2,127,8,0.0845650037453533,1
2,128,8,0.0509392385085474,1
2,151,8,0.0476430983203048,1
2,152,8,0.0619903395490022,1
2,153,8,0.0628326277328125,1
2,154,8,0.0507837029680033,1
2,155,8,0.0439976181819236,1
2,156,8,0.0443686553588917,1
2,157,8,0.0463812096673803,1
2,158,8,0.0472987163459954,1
2,159,8,0.0466647496547692,1
2,160,8,0.0467544581988895,1
2,161,8,0.0461808631086545,1
2,162,8,0.0440436565289091,1
3,124,8,0.0837515388648642,1
3,125,8,0.144538858289653,1
3,126,8,0.197946314497048,1
3,127,8,0.139184687746358,1
3,128,8,0.0646606015213081,1
3,152,8,0.042432573907686,1
3,153,8,0.0447697323545154,1
3,154,8,0.0422502750297868,1
3,156,8,0.0410410479740013,1
3,157,8,0.0429453891884508,1
3,158,8,0.044868491772723,1
3,159,8,0.0457828355114689,1
3,160,8,0.044438953725011,1
3,161,8,0.0432539218075415,1
3,162,8,0.04358023988082,1
4,125,8,0.116833689356008,1
4,126,8,0.16919031421088,1
4,127,8,0.124479839669983,1
4,128,8,0.0674964123070434,1
4,129,8,0.0479994994661174,1
4,130,8,0.0430596632322222,1
4,153,8,0.0430355951521745,1
4,154,8,0.042877780672904,1
4,155,8,0.0420298748916166,1
4,156,8,0.0419881403055471,1
4,157,8,0.0439792812407842,1
4,158,8,0.0461007839592472,1
4,159,8,0.0466080654469246,1
4,160,8,0.0460721552983795,1
4,161,8,0.0555853809070632,1
4,162,8,0.0689896929900256,1
5,126,8,0.0960750176237928,1
5,127,8,0.0792381642465689,1
5,128,8,0.0585666707065789,1
5,129,8,0.0512983970891178,1
5,130,8,0.047005200932865,1
5,153,8,0.0413209032716109,1
5,157,8,0.0429637342396924,1
5,158,8,0.0456781503118994,1
5,159,8,0.046325920397119,1
5,160,8,0.0495663279628453,1
5,161,8,0.0827912973542381,1
5,162,8,0.118762888033789,1
6,127,8,0.0648327195175428,1
6,128,8,0.0576160423704613,1
6,129,8,0.0516449309438853,1
6,130,8,0.0471270254818114,1
6,158,8,0.0434574096791972,1
6,159,8,0.0441265552905246,1
6,160,8,0.0499166411252514,1
6,161,8,0.0911654104442718,1
6,162,8,0.132966683180997,1
6,163,8,0.115076327524251,1
7,128,8,0.0625609987822303,1
7,129,8,0.0514351928867786,1
7,130,8,0.0466359750120613,1
7,131,8,0.0415464181809201,1
7,158,8,0.0412634107569109,1
7,159,8,0.0412975056266808,1
7,160,8,0.0446298601247425,1
7,161,8,0.0657195970434071,1
7,162,8,0.0894603209247472,1
7,163,8,0.0792387752076035,1
8,129,8,0.0479049464875991,1
8,130,8,0.0448917488425478,1
8,131,8,0.0418124268306577,1
8,158,8,0.0416428716267273,1
8,159,8,0.0414721864152198,1
8,160,8,0.0419078151497056,1
8,161,8,0.0459029893793561,1
8,162,8,0.0507737167287922,1
9,130,8,0.0420101943768747,1
9,157,8,0.0412908715630576,1
9,158,8,0.0423619862812538,1
9,159,8,0.0421317918429587,1
9,160,8,0.0416088389344078,1
9,161,8,0.0437579160004488,1
10,134,8,0.0410753077491832,1
10,135,8,0.0416724843133321,1
10,157,8,0.0473801201454334,1
10,158,8,0.0497192844908807,1
10,159,8,0.0476833514610338,1
10,160,8,0.0444035504254149,1
10,161,8,0.0465978413113815,1
11,133,8,0.0414099819311248,1
11,134,8,0.0430852884518978,1
11,135,8,0.0435134207485568,1
11,136,8,0.0441636779317933,1
11,137,8,0.057848180529924,1
11,156,8,0.0430557622730501,1
11,157,8,0.054372439424457,1
11,158,8,0.0579598836712889,1
11,159,8,0.0535240848841795,1
11,160,8,0.0482880623101533,1
12,134,8,0.0424398946266312,1
12,135,8,0.0444669497979049,1
12,156,8,0.0419973804153532,1
12,157,8,0.0537148939626842,1
12,158,8,0.0574243898413249,1
12,159,8,0.0527023531061519,1
13,157,8,0.0462617100144061,1
13,158,8,0.0478665370434434,1
14,145,8,0.0424639383763722,1
15,146,8,0.0459289579266928,1
15,147,8,0.0454400377104615,1
15,148,8,0.0452547975688206,1
15,149,8,0.0436585077740628,1
16,147,8,0.0521642316030657,1
16,148,8,0.0513533943956988,1
16,149,8,0.0486865548865334,1
16,150,8,0.0439318560663175,1
17,148,8,0.0477872364638501,1
17,149,8,0.0452003787828653,1
1,124,9,0.0545577282267112,1
1,125,9,0.05594464762233,1
1,126,9,0.0570938869552963,1
1,127,9,0.0502409370797075,1
1,128,9,0.0414580802440764,1
1,150,9,0.0425550661883826,1
1,151,9,0.0609742032138151,1
1,152,9,0.0877907536529847,1
1,153,9,0.0890947499566812,1
1,154,9,0.0667629779153482,1
1,155,9,0.05214944959007,1
1,156,9,0.0533889002934949,1
1,157,9,0.0563399826655756,1
1,158,9,0.0542299557417664,1
1,159,9,0.0499738551931082,1
1,160,9,0.0492326945773564,1
2,124,9,0.0673533014431138,1
2,125,9,0.0800427026078715,1
2,126,9,0.095710192785132,1
2,127,9,0.0723758012456598,1
2,128,9,0.0476883635042112,1
2,150,9,0.0417466322746428,1
2,151,9,0.0539403331777059,1
2,152,9,0.0729067155712319,1
2,153,9,0.0734339803508011,1
2,154,9,0.0582776807304923,1
2,155,9,0.0496411139188645,1
2,156,9,0.05069124239586,1
2,157,9,0.054070062372958,1
2,158,9,0.0542542914551876,1
2,159,9,0.0519598678403693,1
2,160,9,0.0501090289703233,1
2,161,9,0.049191435783951,1
3,124,9,0.082149253001192,1
3,125,9,0.119258296331803,1
3,126,9,0.155942754183796,1
3,127,9,0.115183380873671,1
3,128,9,0.0599787368258418,1
3,151,9,0.0429392228073895,1
3,152,9,0.0493030902647025,1
3,153,9,0.0496772903815399,1
3,154,9,0.0471866725803369,1
3,155,9,0.0451761187637315,1
3,156,9,0.0453057398242872,1
3,157,9,0.0477455559451288,1
3,158,9,0.0502809577308392,1
3,159,9,0.050136760113211,1
3,160,9,0.0467552151417642,1
3,161,9,0.0443291321273633,1
3,162,9,0.0444349743681841,1
4,125,9,0.109960550732604,1
4,126,9,0.150259378370829,1
4,127,9,0.11646727493731,1
4,128,9,0.0672442205681362,1
4,129,9,0.0471677652286742,1
4,152,9,0.0458181144561642,1
4,153,9,0.0461932066842468,1
4,154,9,0.0457918106912688,1
4,155,9,0.0449993617890219,1
4,156,9,0.0447926947572925,1
4,157,9,0.0464505888885803,1
4,158,9,0.0491172607889663,1
4,159,9,0.0486537035657719,1
4,160,9,0.0480643262165997,1
4,161,9,0.0593623906833914,1
4,162,9,0.0786088257203479,1
5,126,9,0.096003237812333,1
5,127,9,0.0803306274571988,1
5,128,9,0.059079402182954,1
5,129,9,0.0507668285486325,1
5,130,9,0.0461248979965409,1
5,152,9,0.0437312283573812,1
5,153,9,0.0437671804405615,1
5,154,9,0.0425049863071197,1
5,155,9,0.0420328053418886,1
5,156,9,0.0429091667685296,1
5,157,9,0.0448508820374169,1
5,158,9,0.0479055412284292,1
5,159,9,0.0474826372443404,1
5,160,9,0.0538667583302861,1
5,161,9,0.0979982472663332,1
5,162,9,0.153120027696324,1
5,163,9,0.124484976068062,1
6,127,9,0.067015299415891,1
6,128,9,0.0565682604163774,1
6,129,9,0.0506591047640946,1
6,130,9,0.0474990088373729,1
6,157,9,0.0424906260194398,1
6,158,9,0.0452012763008453,1
6,159,9,0.0449427586821997,1
6,160,9,0.0546922423822783,1
6,161,9,0.108981293735619,1
6,162,9,0.172483058969656,1
6,163,9,0.140078550773609,1
7,128,9,0.0597979031730786,1
7,129,9,0.0495362124499023,1
7,130,9,0.0468899131263151,1
7,131,9,0.0425290570905348,1
7,157,9,0.0420818309098618,1
7,158,9,0.0437760042317865,1
7,159,9,0.0433831373629858,1
7,160,9,0.0475803747896672,1
7,161,9,0.069111009305899,1
7,162,9,0.100931022434316,1
8,129,9,0.0464535734062006,1
8,130,9,0.0447150216048798,1
8,131,9,0.0428133486140636,1
8,157,9,0.0419388660277723,1
8,158,9,0.0431725964057584,1
8,159,9,0.0437136321389121,1
8,160,9,0.0448903160578207,1
8,161,9,0.0462995895985495,1
9,130,9,0.0412861704071323,1
9,157,9,0.0420519046326375,1
9,158,9,0.0448274276217711,1
9,159,9,0.0438977774167521,1
9,160,9,0.0439518366548419,1
9,161,9,0.0451244303788599,1
10,156,9,0.0432803661475423,1
10,157,9,0.060621765204625,1
10,158,9,0.0729159124271594,1
10,159,9,0.0597098436830781,1
10,160,9,0.0469671267062682,1
11,133,9,0.0410108946139146,1
11,134,9,0.0423379884887588,1
11,135,9,0.0427923434492909,1
11,136,9,0.0427337587741574,1
11,137,9,0.0477657014390652,1
11,138,9,0.0555947669987094,1
11,156,9,0.0475330280128554,1
11,157,9,0.0815752307789063,1
11,158,9,0.100627109870129,1
11,159,9,0.076505578842002,1
12,134,9,0.0415021667597923,1
12,135,9,0.0445486563744928,1
12,156,9,0.046076686142158,1
12,157,9,0.0747135382131148,1
12,158,9,0.08955593362329,1
13,157,9,0.0498976851129752,1
14,145,9,0.0421534133755007,1
15,146,9,0.0447942573036553,1
15,147,9,0.0452392559095828,1
15,148,9,0.0476915751046939,1
15,149,9,0.0467991881160488,1
15,150,9,0.0422795146516891,1
16,147,9,0.0492357061286507,1
16,148,9,0.0496957922280912,1
16,149,9,0.0468511414309265,1
16,150,9,0.0417102125089006,1
1,124,10,0.0552946391488952,1
1,125,10,0.0560683807486675,1
1,126,10,0.0543122462457147,1
1,127,10,0.0472159824897919,1
1,149,10,0.0411994598974693,1
1,150,10,0.0468540448475245,1
1,151,10,0.0661235828623635,1
1,152,10,0.0960744769503109,1
1,153,10,0.104344867239573,1
1,154,10,0.0827583054583713,1
1,155,10,0.064986460022127,1
1,156,10,0.0627363986665002,1
1,157,10,0.0648228630399674,1
1,158,10,0.0602538423069127,1
1,159,10,0.0539357266396399,1
2,124,10,0.062573569440685,1
2,125,10,0.0674810571801568,1
2,126,10,0.0737845800701526,1
2,127,10,0.059380346449726,1
2,128,10,0.0432089918411939,1
2,149,10,0.0411660057257754,1
2,150,10,0.0463039149864049,1
2,151,10,0.0585155121817196,1
2,152,10,0.0782301812674892,1
2,153,10,0.0822371665093523,1
2,154,10,0.0683383814934993,1
2,155,10,0.0581996074797029,1
2,156,10,0.0577745624286257,1
2,157,10,0.0615112325564677,1
2,158,10,0.0610696212699045,1
2,159,10,0.0570141484301827,1
2,160,10,0.0534095810541783,1
3,124,10,0.0833825562471274,1
3,125,10,0.100623119699832,1
3,126,10,0.114941645759904,1
3,127,10,0.0884206869200358,1
3,128,10,0.0549871148858483,1
3,150,10,0.0433435979112529,1
3,151,10,0.0524498802170341,1
3,152,10,0.0604921711777434,1
3,153,10,0.0585467090416264,1
3,154,10,0.0544505613358597,1
3,155,10,0.0506053293795828,1
3,156,10,0.0500951444753075,1
3,157,10,0.0527476453237324,1
3,158,10,0.055770415592781,1
3,159,10,0.0538045754731304,1
3,160,10,0.0489326424218296,1
3,161,10,0.0458324260832307,1
4,125,10,0.116132857575272,1
4,126,10,0.133050444316817,1
4,127,10,0.10517395758369,1
4,128,10,0.0691267483109577,1
4,129,10,0.0462178613950224,1
4,150,10,0.0436270351706802,1
4,151,10,0.0537738814395617,1
4,152,10,0.0598987712178657,1
4,153,10,0.0553636561188623,1
4,154,10,0.052332116125937,1
4,155,10,0.0500345079443101,1
4,156,10,0.0489554534360319,1
4,157,10,0.0499157165735973,1
4,158,10,0.0529001963466563,1
4,159,10,0.0513774813993183,1
4,160,10,0.0508219772437885,1
4,161,10,0.0612937682753044,1
5,126,10,0.106866081753118,1
5,127,10,0.0880336566214724,1
5,128,10,0.0650482860347846,1
5,129,10,0.0509341399576129,1
5,130,10,0.0452453006391107,1
5,151,10,0.0505956242905823,1
5,152,10,0.0562536695509218,1
5,153,10,0.0515792337090971,1
5,154,10,0.0482325243300904,1
5,155,10,0.0467198983499251,1
5,156,10,0.0463679523536036,1
5,157,10,0.0470409827038986,1
5,158,10,0.04993402918443,1
5,159,10,0.0490746881589999,1
5,160,10,0.0566684147721684,1
5,161,10,0.100494493478483,1
5,162,10,0.160268888168568,1
6,127,10,0.0804693318322507,1
6,128,10,0.0609615406408685,1
6,129,10,0.0513579090192728,1
6,130,10,0.0485215845937297,1
6,151,10,0.0425361290996783,1
6,152,10,0.0473928584126674,1
6,153,10,0.0453816233474748,1
6,154,10,0.0431093511252107,1
6,155,10,0.0427894292192234,1
6,156,10,0.0432287588636929,1
6,157,10,0.0439758614810111,1
6,158,10,0.0463044015925386,1
6,159,10,0.0459363435264558,1
6,160,10,0.0568612567829651,1
6,161,10,0.11133664043838,1
6,162,10,0.182883540575642,1
7,128,10,0.0582369842375081,1
7,129,10,0.0490542452946484,1
7,130,10,0.0481265901747777,1
7,131,10,0.0431827583638511,1
7,152,10,0.0411318162381462,1
7,153,10,0.0409894028430082,1
7,156,10,0.0418360785921243,1
7,157,10,0.0431011545152248,1
7,158,10,0.044622142010788,1
7,159,10,0.0446417089840987,1
7,160,10,0.048432546484727,1
7,161,10,0.0666827581908356,1
8,129,10,0.0452329786904577,1
8,130,10,0.0445106875792249,1
8,131,10,0.0426457209110962,1
8,156,10,0.0411781898026905,1
8,157,10,0.0421078886683229,1
8,158,10,0.0430801736807589,1
8,159,10,0.0444432088253138,1
8,160,10,0.0462732047326318,1
9,157,10,0.0413728403662842,1
9,158,10,0.0450146547384581,1
9,159,10,0.0430816551260993,1
9,160,10,0.0440560298415429,1
10,156,10,0.0457937625225385,1
10,157,10,0.0737813900966093,1
10,158,10,0.0985322704644264,1
10,159,10,0.0682372268917668,1
11,134,10,0.0420388635882535,1
11,135,10,0.0421965969665017,1
11,136,10,0.0411838722809855,1
11,137,10,0.0416193577369986,1
11,138,10,0.0439360787262113,1
11,139,10,0.0420316834444136,1
11,150,10,0.0444269561804472,1
11,151,10,0.0425885528004853,1
11,154,10,0.0411099676227417,1
11,156,10,0.0534143065404103,1
11,157,10,0.116181658763751,1
11,158,10,0.15756233078542,1
12,149,10,0.0424632841614591,1
12,150,10,0.0473333086353687,1
12,151,10,0.0452469253629238,1
12,152,10,0.0413808477405515,1
12,156,10,0.0497025344264107,1
12,157,10,0.0985875381077484,1
13,149,10,0.0414968276091583,1
13,150,10,0.0435484131363067,1
13,151,10,0.0423420976072214,1
14,145,10,0.0431495339783871,1
14,148,10,0.0415802454173164,1
14,149,10,0.0423774955000827,1
15,145,10,0.0459037030683523,1
15,146,10,0.0440136113035188,1
15,147,10,0.0445593617094348,1
15,148,10,0.0480539128453379,1
15,149,10,0.047509443835574,1
15,150,10,0.0423786768716407,1
1,124,11,0.0557820995467253,1
1,125,11,0.0566438627893544,1
1,126,11,0.0537194788738109,1
1,127,11,0.0467860335302336,1
1,140,11,0.0429779188084906,1
1,141,11,0.0450069474379733,1
1,142,11,0.0438557806040439,1
1,148,11,0.0425235449243866,1
1,149,11,0.0457871176454457,1
1,150,11,0.0524713233273271,1
1,151,11,0.0692583266095179,1
1,152,11,0.09506279035788,1
1,153,11,0.116458256503632,1
1,154,11,0.1086830906834,1
2,124,11,0.0597052263315425,1
2,125,11,0.0634141328760879,1
2,126,11,0.0633663373402861,1
2,127,11,0.0540042786304126,1
2,128,11,0.04177108693623,1
2,142,11,0.0411894682515234,1
2,148,11,0.0433701206489085,1
2,149,11,0.0473537298727808,1
2,150,11,0.0540991181658764,1
2,151,11,0.0658316462158003,1
2,152,11,0.0825938974659888,1
2,153,11,0.0931691355548006,1
2,154,11,0.0871091482212664,1
3,124,11,0.0915910934900577,1
3,125,11,0.105897627412301,1
3,126,11,0.0944391126830147,1
3,127,11,0.0705654912598185,1
3,128,11,0.0507325228162047,1
3,149,11,0.0440081099508402,1
3,150,11,0.0521985319287588,1
3,151,11,0.0647923744623218,1
3,152,11,0.073084743128624,1
3,153,11,0.0690653818707597,1
3,154,11,0.0620528738439211,1
4,124,11,0.134181284531193,1
4,125,11,0.157273957177103,1
4,126,11,0.137696019008176,1
4,127,11,0.0996242470689225,1
4,128,11,0.0720993494876189,1
4,129,11,0.0448817869336434,1
4,149,11,0.0442811906097214,1
4,150,11,0.054935237265258,1
4,151,11,0.0701423601928673,1
4,152,11,0.0754153972734658,1
4,153,11,0.0656415670464963,1
4,154,11,0.0580782695368902,1
5,125,11,0.139019122712724,1
5,126,11,0.12876246025293,1
5,127,11,0.100835777393741,1
5,128,11,0.0767326400774694,1
5,129,11,0.0513632941271527,1
5,130,11,0.041662471040447,1
5,149,11,0.0420254792162086,1
5,150,11,0.051581061185466,1
5,151,11,0.0653647097833439,1
5,152,11,0.0691648874183724,1
5,153,11,0.0604138167767435,1
5,154,11,0.0546122497406281,1
6,126,11,0.109003136944288,1
6,127,11,0.0950930680728676,1
6,128,11,0.0708382826583868,1
6,129,11,0.0532875943031874,1
6,130,11,0.0473108814993386,1
6,150,11,0.0443423407805266,1
6,151,11,0.0527638222743114,1
6,152,11,0.0560474134310387,1
6,153,11,0.0527116959439194,1
6,154,11,0.049395512989702,1
7,127,11,0.0751295107631654,1
7,128,11,0.0579239829520893,1
7,129,11,0.0503868594457431,1
7,130,11,0.0490956554766288,1
7,131,11,0.0435078869554694,1
7,151,11,0.0443905769652162,1
7,152,11,0.0472757323162789,1
7,153,11,0.0465295758775542,1
8,128,11,0.0478413416591859,1
8,129,11,0.0447816109509132,1
8,130,11,0.0447355726039276,1
8,131,11,0.0422262556103525,1
8,152,11,0.0421954128915763,1
8,153,11,0.0420828798164167,1
11,134,11,0.0419343487008308,1
11,135,11,0.0415727570895918,1
11,149,11,0.0444800232826977,1
11,150,11,0.0495494265098004,1
11,151,11,0.0457959360299358,1
11,152,11,0.0420257387394799,1
12,145,11,0.0419697628138966,1
12,146,11,0.041367703968206,1
12,149,11,0.0465948513870265,1
12,150,11,0.050309316054966,1
12,151,11,0.0458843361442299,1
12,152,11,0.0414393621281323,1
13,145,11,0.0456872011859867,1
13,146,11,0.0441816472149649,1
13,147,11,0.0411016088107113,1
13,149,11,0.0428136108407023,1
13,150,11,0.0430163552863203,1
14,145,11,0.0451484714252335,1
1,123,12,0.0515893334897394,1
1,124,12,0.0549783343485019,1
1,125,12,0.055727053579531,1
1,126,12,0.0524509345303239,1
1,127,12,0.0444714617181115,1
1,140,12,0.0454889632538405,1
1,141,12,0.0476505596143553,1
1,142,12,0.0466475508313093,1
1,143,12,0.0437884856791166,1
1,144,12,0.0410071261197456,1
1,147,12,0.0440137032180107,1
1,148,12,0.0469818708721202,1
1,149,12,0.0505678066399375,1
1,150,12,0.0587564254717938,1
1,151,12,0.0716023732365069,1
1,152,12,0.0925167048641668,1
2,124,12,0.0556456335598885,1
2,125,12,0.0587380804205523,1
2,126,12,0.0550642095176353,1
2,127,12,0.0470193827982958,1
2,141,12,0.042306296912616,1
2,142,12,0.0443191729218263,1
2,143,12,0.0440049118671947,1
2,144,12,0.0419042656282968,1
2,146,12,0.0418182552907928,1
2,147,12,0.0445367047871749,1
2,148,12,0.0480405365833952,1
2,149,12,0.0530882371769335,1
2,150,12,0.0637746539538327,1
2,151,12,0.075414256452419,1
2,152,12,0.0889809814426155,1
3,124,12,0.090512201183824,1
3,125,12,0.109766124548505,1
3,126,12,0.0784852277623808,1
3,127,12,0.0563731908308352,1
3,128,12,0.0416179033253322,1
3,148,12,0.0446569613830237,1
3,149,12,0.0524238089417359,1
3,150,12,0.0671864225729189,1
3,151,12,0.0840596092081279,1
3,152,12,0.0900857503816938,1
4,124,12,0.159779740869474,1
4,125,12,0.198631023394552,1
4,126,12,0.142617672392875,1
4,127,12,0.0956671227355621,1
4,128,12,0.067166233825104,1
4,148,12,0.046201424921172,1
4,149,12,0.0571621523891237,1
4,150,12,0.0771953051894187,1
4,151,12,0.100328485092594,1
4,152,12,0.10253415174862,1
5,125,12,0.187140544049015,1
5,126,12,0.153246404715988,1
5,127,12,0.122287041042827,1
5,128,12,0.088702750868819,1
5,129,12,0.0518012342407737,1
5,148,12,0.0466884527802166,1
5,149,12,0.056573445475069,1
5,150,12,0.0732949840120689,1
5,151,12,0.0931168632425685,1
5,152,12,0.0930619200033357,1
6,126,12,0.12277261989694,1
6,127,12,0.114552923153343,1
6,128,12,0.0840706011000153,1
6,129,12,0.057075266160579,1
6,130,12,0.0455389863643878,1
6,148,12,0.0462229112853435,1
6,149,12,0.0535196513616278,1
6,150,12,0.0618464068613801,1
6,151,12,0.0727044496216454,1
7,127,12,0.077436186039084,1
7,128,12,0.062227289702454,1
7,129,12,0.0552746991108819,1
7,130,12,0.0522410613048467,1
7,131,12,0.0450710659061943,1
7,138,12,0.0425140101475329,1
7,139,12,0.0425978956382529,1
7,148,12,0.0427997912265044,1
7,149,12,0.0481948123547264,1
7,150,12,0.05259205571584,1
8,128,12,0.0450625557055888,1
8,129,12,0.0464435168794368,1
8,130,12,0.0478050354348749,1
8,131,12,0.044026403638101,1
8,138,12,0.0415879040571879,1
8,139,12,0.0423466798149807,1
8,149,12,0.0411272367337543,1
11,135,12,0.0411549949103161,1
11,142,12,0.0412732402008122,1
11,144,12,0.0416935327319833,1
11,145,12,0.0442774491492265,1
11,146,12,0.0434937510472845,1
12,144,12,0.0456462181360572,1
12,145,12,0.0496805398291662,1
12,146,12,0.0477902155747355,1
13,145,12,0.0535487017478114,1
1,123,13,0.0501927792926728,1
1,124,13,0.0544479228492679,1
1,125,13,0.0563110890747018,1
1,126,13,0.0516656657719169,1
1,127,13,0.0414194437170584,1
1,140,13,0.0474820587237147,1
1,141,13,0.0504197972742617,1
1,142,13,0.0492815876803265,1
1,143,13,0.047013008257944,1
1,144,13,0.0452636159533107,1
1,145,13,0.0452959833713059,1
1,146,13,0.0471738586188154,1
1,147,13,0.0494774682760916,1
1,148,13,0.0512497851363583,1
1,149,13,0.0547796909112442,1
1,150,13,0.0632511955155763,1
1,151,13,0.0739014358298001,1
1,152,13,0.0902156958463387,1
2,123,13,0.0517872037639179,1
2,124,13,0.0562575678067264,1
2,125,13,0.0596490827971799,1
2,126,13,0.0535327897272384,1
2,127,13,0.0434275077322796,1
2,140,13,0.0417813002583035,1
2,141,13,0.0461206861501167,1
2,142,13,0.0478777289845192,1
2,143,13,0.0475217333438181,1
2,144,13,0.045769134845437,1
2,145,13,0.0452139118401177,1
2,146,13,0.0475908422282772,1
2,147,13,0.0500861530753032,1
2,148,13,0.0520813355448176,1
2,149,13,0.0598108144558268,1
2,150,13,0.0801716478265748,1
2,151,13,0.0949453777045461,1
2,152,13,0.0981866070939648,1
3,124,13,0.0826447261800242,1
3,125,13,0.104166217907677,1
3,126,13,0.0690482911819961,1
3,127,13,0.0502074153238284,1
3,142,13,0.041933881018269,1
3,143,13,0.0422346847099356,1
3,144,13,0.0410002000924422,1
3,146,13,0.0427654206132587,1
3,147,13,0.0460735015753495,1
3,148,13,0.0505199516300527,1
3,149,13,0.0669866112809403,1
3,150,13,0.100519267137425,1
3,151,13,0.121296700239462,1
3,152,13,0.110494627998045,1
3,153,13,0.0841012843201143,1
4,124,13,0.153302158965443,1
4,125,13,0.202833548607887,1
4,126,13,0.133679366524457,1
4,127,13,0.089252869916469,1
4,128,13,0.0601416741863535,1
4,146,13,0.041533396060108,1
4,147,13,0.0463897306814553,1
4,148,13,0.0551334589771998,1
4,149,13,0.0797324371302713,1
4,150,13,0.118158393454062,1
4,151,13,0.143597156472722,1
4,152,13,0.131634269079091,1
5,125,13,0.208465571253542,1
5,126,13,0.16011239563596,1
5,127,13,0.134524341855472,1
5,128,13,0.0971332237626082,1
5,129,13,0.0555670196356172,1
5,147,13,0.0475756006428218,1
5,148,13,0.0603960394326579,1
5,149,13,0.0858044274151041,1
5,150,13,0.113134747423734,1
5,151,13,0.129912224039173,1
5,152,13,0.120665226052988,1
6,126,13,0.122681224451556,1
6,127,13,0.128144535343912,1
6,128,13,0.0992395578865359,1
6,129,13,0.0660037858389743,1
6,130,13,0.044815513881597,1
6,138,13,0.0414843542719304,1
6,147,13,0.0488607923228172,1
6,148,13,0.0629653846995633,1
6,149,13,0.084123273510624,1
6,150,13,0.0986584636551067,1
6,151,13,0.103509029290402,1
7,127,13,0.0834359477534671,1
7,128,13,0.072781646981394,1
7,129,13,0.0642078848014262,1
7,130,13,0.0552291149296212,1
7,131,13,0.0458492896891318,1
7,138,13,0.0448922895160298,1
7,139,13,0.043606857236335,1
7,147,13,0.0458098151182167,1
7,148,13,0.0571712140766806,1
7,149,13,0.070596639459112,1
7,150,13,0.0785766015808255,1
8,128,13,0.0475301516299316,1
8,129,13,0.0522144872032103,1
8,130,13,0.0531958960806536,1
8,131,13,0.0474424111372855,1
8,138,13,0.0419709577022917,1
8,139,13,0.0420560705218157,1
8,148,13,0.046346109144934,1
8,149,13,0.0533337732252782,1
9,130,13,0.0418967286399588,1
9,131,13,0.0419489847319864,1
10,133,13,0.0415106445199888,1
10,134,13,0.0421531862926383,1
10,143,13,0.0428008752768356,1
10,144,13,0.0451560246337759,1
10,145,13,0.0452688226389416,1
10,146,13,0.0420518262349826,1
11,141,13,0.0413804611590119,1
11,142,13,0.0451971888093219,1
11,143,13,0.0469035543182639,1
11,144,13,0.0487214121059128,1
11,145,13,0.0504612831505295,1
11,146,13,0.0482429214811478,1
11,147,13,0.0439914653176993,1
12,138,13,0.043859814028219,1
12,139,13,0.0458061169116004,1
12,140,13,0.0477453775228798,1
12,141,13,0.0490538235693325,1
12,144,13,0.0548943515365551,1
12,145,13,0.0570373216956178,1
12,146,13,0.0522104051184218,1
13,145,13,0.0610820135061101,1
1,123,14,0.0499666101684505,1
1,124,14,0.0542023489537795,1
1,125,14,0.0566130011470064,1
1,126,14,0.0503292560929792,1
1,140,14,0.0482262092638216,1
1,141,14,0.0539729195684612,1
1,142,14,0.0553118812262336,1
1,143,14,0.0535869706168617,1
1,144,14,0.0514580255279201,1
1,145,14,0.0524921879169944,1
1,146,14,0.0536855948666989,1
1,147,14,0.0540353673556231,1
1,148,14,0.0542460515913232,1
1,149,14,0.0580152594493072,1
1,150,14,0.0672231234888717,1
1,151,14,0.0798055902523751,1
1,152,14,0.0924213949427738,1
2,124,14,0.05576012657642,1
2,125,14,0.0586764003897347,1
2,126,14,0.0516008714618435,1
2,140,14,0.0437061465145549,1
2,141,14,0.0494978030057466,1
2,142,14,0.0528656743448357,1
2,143,14,0.0525948185573326,1
2,144,14,0.0509017752429851,1
2,145,14,0.0511161198381578,1
2,146,14,0.0529189144626004,1
2,147,14,0.0539735089025565,1
2,148,14,0.0541192906934868,1
2,149,14,0.0661017450604287,1
2,150,14,0.100998466044451,1
2,151,14,0.124336777466667,1
2,152,14,0.110010454894985,1
3,124,14,0.0702295113514181,1
3,125,14,0.0852415106261371,1
3,126,14,0.059997422501377,1
3,127,14,0.0452611991428465,1
3,141,14,0.0416517008246871,1
3,142,14,0.0457030915796204,1
3,143,14,0.0460942634370553,1
3,144,14,0.0453860028026783,1
3,145,14,0.0447708082947444,1
3,146,14,0.0473479987338725,1
3,147,14,0.0517441769682267,1
3,148,14,0.0569064895264626,1
3,149,14,0.0862103866922695,1
3,150,14,0.152690300412893,1
3,151,14,0.183170119147999,1
3,152,14,0.139946604817081,1
3,153,14,0.0858722386832066,1
4,124,14,0.123731666519171,1
4,125,14,0.167200030243112,1
4,126,14,0.11347578262919,1
4,127,14,0.0788240191728872,1
4,128,14,0.0527670609084681,1
4,142,14,0.0444181269824875,1
4,143,14,0.0447412550822226,1
4,144,14,0.0441994732196639,1
4,145,14,0.0428414311947145,1
4,146,14,0.0461714986439477,1
4,147,14,0.0565097433254291,1
4,148,14,0.072685677438353,1
4,149,14,0.114138442862102,1
4,150,14,0.179699676642655,1
4,151,14,0.204502348123305,1
4,152,14,0.164275776089204,1
4,153,14,0.108115437594731,1
5,125,14,0.197129054088716,1
5,126,14,0.154295819503987,1
5,127,14,0.129705751649898,1
5,128,14,0.0965430462166827,1
5,129,14,0.054167015941736,1
5,142,14,0.04171456493043,1
5,143,14,0.0422547680264215,1
5,144,14,0.041943913214726,1
5,146,14,0.0464095193308936,1
5,147,14,0.0653289928931282,1
5,148,14,0.0955358796545607,1
5,149,14,0.144775143414722,1
5,150,14,0.184977244567032,1
5,151,14,0.184415203669105,1
5,152,14,0.153750961209316,1
6,126,14,0.12334442535795,1
6,127,14,0.134565757444187,1
6,128,14,0.114091425896114,1
6,129,14,0.0740249256530709,1
6,130,14,0.0439628636905057,1
6,138,14,0.043095512587441,1
6,143,14,0.0410046390217288,1
6,144,14,0.0410194723987053,1
6,146,14,0.0483855781793526,1
6,147,14,0.072452593100297,1
6,148,14,0.108288874834262,1
6,149,14,0.158251440765068,1
6,150,14,0.180400432729103,1
6,151,14,0.157286187211264,1
7,127,14,0.0892451004385338,1
7,128,14,0.0864950296535615,1
7,129,14,0.0736609118246329,1
7,130,14,0.0596567819875624,1
7,131,14,0.0472923093652346,1
7,137,14,0.0426894749126207,1
7,138,14,0.0458298038168434,1
7,139,14,0.0439296393050417,1
7,146,14,0.0464739081358556,1
7,147,14,0.0652621764642325,1
7,148,14,0.0917199359807994,1
7,149,14,0.126170331005496,1
7,150,14,0.140340885547037,1
8,128,14,0.0545852701338803,1
8,129,14,0.0611219476494848,1
8,130,14,0.062487440155015,1
8,131,14,0.0535530920164846,1
8,132,14,0.0427242104804667,1
8,138,14,0.0418463081344023,1
8,139,14,0.04133977277613,1
8,144,14,0.0410001622452985,1
8,146,14,0.0426975255407665,1
8,147,14,0.0516921695860007,1
8,148,14,0.0634245895012283,1
8,149,14,0.0776373490147675,1
9,130,14,0.0491046522833679,1
9,131,14,0.0474263423214028,1
9,132,14,0.042840160612032,1
9,143,14,0.042335963666569,1
9,144,14,0.0449579380902046,1
9,145,14,0.0440800817013861,1
9,146,14,0.0419384740394979,1
9,147,14,0.042228556176018,1
9,148,14,0.0459833875261178,1
10,132,14,0.0420962452648898,1
10,133,14,0.0435033939588346,1
10,134,14,0.044566174195307,1
10,135,14,0.0439097965882552,1
10,142,14,0.0434309464156246,1
10,143,14,0.0500742636654357,1
10,144,14,0.0558812536565748,1
10,145,14,0.0554182857674756,1
10,146,14,0.049030753031859,1
10,147,14,0.0423974625717701,1
11,136,14,0.0426304414784972,1
11,141,14,0.0412096461858687,1
11,142,14,0.0503192644470333,1
11,143,14,0.0622294199559727,1
11,144,14,0.0708649378610455,1
11,145,14,0.0682330258588122,1
11,146,14,0.0573594819898203,1
12,138,14,0.0422601882780778,1
12,139,14,0.0426916808604269,1
12,140,14,0.0447075873445034,1
12,141,14,0.0484935128265484,1
12,145,14,0.0737516206146947,1
13,139,14,0.0506769091418543,1
13,140,14,0.054639077958801,1
1,124,15,0.0533510909969041,1
1,125,15,0.0550648096652003,1
1,126,15,0.0482077831115577,1
1,140,15,0.0470256600174209,1
1,141,15,0.056202824616682,1
1,142,15,0.0624957340862276,1
1,143,15,0.059968145032331,1
1,144,15,0.0557296650324486,1
1,145,15,0.0565399453461292,1
1,146,15,0.0585681737788587,1
1,147,15,0.0568078382429513,1
1,148,15,0.0552504607186874,1
1,149,15,0.0589296572554013,1
1,150,15,0.0701983307117158,1
1,151,15,0.085530554669572,1
1,152,15,0.0956546656185387,1
2,124,15,0.0550192795512877,1
2,125,15,0.0567263371222866,1
2,126,15,0.0494712991916629,1
2,140,15,0.0440875159617625,1
2,141,15,0.0504619752125863,1
2,142,15,0.056445657297617,1
2,143,15,0.0551760424206358,1
2,144,15,0.0532738557900118,1
2,145,15,0.0545926665471129,1
2,146,15,0.0577710696779325,1
2,147,15,0.0577566228824956,1
2,148,15,0.0565521861937599,1
2,149,15,0.0708333192758228,1
2,150,15,0.115739398669009,1
2,151,15,0.145324154081734,1
2,152,15,0.11586617578705,1
3,124,15,0.061576329643691,1
3,125,15,0.0674405553296261,1
3,126,15,0.0532758995357734,1
3,127,15,0.0422695473360499,1
3,141,15,0.0434938781055528,1
3,142,15,0.0476323010708709,1
3,143,15,0.0479475623714441,1
3,144,15,0.0481650590930163,1
3,145,15,0.0488885342791745,1
3,146,15,0.0528787478296285,1
3,147,15,0.0588250910039978,1
3,148,15,0.0646754159747127,1
3,149,15,0.104379589290582,1
3,150,15,0.198508852814577,1
3,151,15,0.238280166963432,1
3,152,15,0.163184015754101,1
3,153,15,0.0876851547152307,1
4,124,15,0.0926774795307508,1
4,125,15,0.119419784687383,1
4,126,15,0.089491907069561,1
4,127,15,0.0652802565854679,1
4,128,15,0.0469034245566283,1
4,141,15,0.0417819598799515,1
4,142,15,0.0459258869013155,1
4,143,15,0.0471272633781435,1
4,144,15,0.0471705767307802,1
4,145,15,0.0466494810356397,1
4,146,15,0.0526274914558451,1
4,147,15,0.070418579461311,1
4,148,15,0.0961422665914741,1
4,149,15,0.148625106263966,1
4,150,15,0.23310053663357,1
4,151,15,0.253176110675256,1
4,152,15,0.181738112990723,1
4,153,15,0.110360173316561,1
5,125,15,0.161985039867532,1
5,126,15,0.13316188793491,1
5,127,15,0.105632902862083,1
5,128,15,0.0841776814831098,1
5,129,15,0.0492433079978065,1
5,142,15,0.0439411853872481,1
5,143,15,0.0455191166139272,1
5,144,15,0.0454912178622601,1
5,145,15,0.0445188760791086,1
5,146,15,0.054702120486793,1
5,147,15,0.0891041252348578,1
5,148,15,0.144835287932851,1
5,149,15,0.214381490731083,1
5,150,15,0.260738143008915,1
5,151,15,0.233293989605401,1
5,152,15,0.178729167742607,1
6,126,15,0.117242406067931,1
6,127,15,0.121457247823184,1
6,128,15,0.114581870811565,1
6,129,15,0.0741458743109765,1
6,130,15,0.044324952721348,1
6,138,15,0.0412010332573017,1
6,142,15,0.0416824408155017,1
6,143,15,0.043444617344615,1
6,144,15,0.0436352425941358,1
6,145,15,0.0443034176965631,1
6,146,15,0.0583355544199971,1
6,147,15,0.102050054339848,1
6,148,15,0.17487361432956,1
6,149,15,0.258694375620315,2
6,150,15,0.284918142467376,2
6,151,15,0.216797219848305,1
6,152,15,0.146660136628621,1
7,127,15,0.0884246824970672,1
7,128,15,0.0960039839417381,1
7,129,15,0.0765038270599206,1
7,130,15,0.0606727453072353,1
7,131,15,0.0474622971079505,1
7,137,15,0.0417868421614932,1
7,138,15,0.0431608529777311,1
7,139,15,0.041740495630623,1
7,143,15,0.0410967697830481,1
7,144,15,0.0416790589028723,1
7,145,15,0.0433402295154605,1
7,146,15,0.0551026243685258,1
7,147,15,0.0866815295644153,1
7,148,15,0.139983662577532,1
7,149,15,0.203291153016045,1
7,150,15,0.224565010882243,1
7,151,15,0.172898307017241,1
8,128,15,0.0644242082615427,1
8,129,15,0.0659735189374564,1
8,130,15,0.0664930791199081,1
8,131,15,0.0562123729103727,1
8,132,15,0.0459278225123808,1
8,144,15,0.0422775466002149,1
8,145,15,0.0436905102374577,1
8,146,15,0.0494116683133418,1
8,147,15,0.063343612833841,1
8,148,15,0.0849242001730674,1
8,149,15,0.11034674298727,1
8,150,15,0.121076267660883,1
9,130,15,0.0541899945647176,1
9,131,15,0.0511546968910929,1
9,132,15,0.0462028468924294,1
9,133,15,0.0430123651160238,1
9,134,15,0.0411703284102634,1
9,135,15,0.0412058939119041,1
9,143,15,0.0441906845722152,1
9,144,15,0.0467005043921286,1
9,145,15,0.046866766894554,1
9,146,15,0.0464333468112419,1
9,147,15,0.048129991010979,1
9,148,15,0.0533722583637213,1
10,131,15,0.0432310053620103,1
10,132,15,0.0441116786596696,1
10,133,15,0.0443134201559787,1
10,134,15,0.0446451260405045,1
10,135,15,0.0451610799308319,1
10,136,15,0.0429627069600768,1
10,142,15,0.0450976535246677,1
10,143,15,0.0583988780981996,1
10,144,15,0.0707932229304036,1
10,145,15,0.0681438633949087,1
10,146,15,0.0545380423052345,1
10,147,15,0.0452260040025409,1
11,135,15,0.0459042221148949,1
11,136,15,0.0443442196208763,1
11,137,15,0.0415964764352437,1
11,141,15,0.0414975196712152,1
11,142,15,0.0567422869900032,1
11,145,15,0.10065578719161,1
11,146,15,0.0674099856509583,1
12,137,15,0.0436005962374143,1
12,138,15,0.041813016164753,1
12,139,15,0.0422335303720517,1
12,140,15,0.0449481654170189,1
12,141,15,0.0495981411905215,1
13,140,15,0.0535009710928274,1
13,141,15,0.0598375291325686,1
14,141,15,0.0618551657717872,1
14,142,15,0.0704267976982362,1
1,124,16,0.051920641979256,1
1,125,16,0.0525823560335744,1
1,126,16,0.0466457233549404,1
1,140,16,0.0445831351224349,1
1,141,16,0.0588123202963548,1
1,142,16,0.0753712999442804,1
1,143,16,0.0739744267498594,1
1,144,16,0.0630194304208161,1
1,145,16,0.0590369593146233,1
1,146,16,0.0615705444374344,1
1,147,16,0.058671069349203,1
1,148,16,0.0553580655550593,1
1,149,16,0.0582277062805583,1
1,150,16,0.0711465530508388,1
1,151,16,0.0889676322143469,1
1,152,16,0.0993193288520585,1
2,124,16,0.0526623594886942,1
2,125,16,0.0534267528439641,1
2,126,16,0.0477735303910834,1
2,140,16,0.042786001349348,1
2,141,16,0.0508777693403879,1
2,142,16,0.0630589428388749,1
2,143,16,0.062302351401949,1
2,144,16,0.0566122982714799,1
2,145,16,0.0562911165962796,1
2,146,16,0.0608950702430012,1
2,147,16,0.0609064243861215,1
2,148,16,0.0591127509233189,1
2,149,16,0.073609888468144,1
2,150,16,0.117943475744998,1
2,151,16,0.147197912100679,1
2,152,16,0.114624605643576,1
3,124,16,0.0543568247742991,1
3,125,16,0.0549824759073734,1
3,126,16,0.0480123458680478,1
3,141,16,0.0432998385029936,1
3,142,16,0.0479654802906349,1
3,143,16,0.0492071423486008,1
3,144,16,0.0500295661886854,1
3,145,16,0.0518870661560287,1
3,146,16,0.0572766345921856,1
3,147,16,0.0646269824442023,1
3,148,16,0.070980479784132,1
3,149,16,0.114515595056151,1
3,150,16,0.212053285837114,1
3,151,16,0.25127369696177,1
3,152,16,0.164310508953683,1
3,153,16,0.0873591718595111,1
4,125,16,0.0823110279137175,1
4,126,16,0.0686680301154264,1
4,127,16,0.0540901105456676,1
4,128,16,0.0423314895935061,1
4,141,16,0.0412604370527603,1
4,142,16,0.0453578661546792,1
4,143,16,0.0482506368917348,1
4,144,16,0.0497418197616071,1
4,145,16,0.0503924608230158,1
4,146,16,0.0588822996651198,1
4,147,16,0.0832065886557015,1
4,148,16,0.115553125841018,1
4,149,16,0.169084212446788,1
4,150,16,0.251259293420211,1
4,151,16,0.264130285180607,1
4,152,16,0.178522252001076,1
4,153,16,0.106277677616213,1
5,126,16,0.102813420415502,1
5,127,16,0.0797055115908716,1
5,128,16,0.0672980824604052,1
5,129,16,0.0425070192394117,1
5,142,16,0.0442347359441547,1
5,143,16,0.0475699560116706,1
5,144,16,0.0485765062060232,1
5,145,16,0.0479847282665913,1
5,146,16,0.0628442522126738,1
5,147,16,0.113707190879453,1
5,148,16,0.192959315315325,1
5,149,16,0.266516580033473,2
5,150,16,0.299669250566864,2
5,151,16,0.246601823912249,1
5,152,16,0.180616907577794,1
6,127,16,0.0971573702403108,1
6,128,16,0.0984705147393214,1
6,129,16,0.0654350135561981,1
6,130,16,0.0427385707681465,1
6,142,16,0.0428419853850335,1
6,143,16,0.0449651750047601,1
6,144,16,0.0455341689636639,1
6,145,16,0.0469352648179786,1
6,146,16,0.0672290222365594,1
6,147,16,0.133531968119815,1
6,148,16,0.244298295355995,2
6,149,16,0.342620762882497,2
6,150,16,0.352422740570936,2
6,151,16,0.242478172146457,2
6,152,16,0.157594241334323,1
7,127,16,0.0804415844691586,1
7,128,16,0.0939347940860183,1
7,129,16,0.0730593260682389,1
7,130,16,0.0575387422827511,1
7,131,16,0.0462219651067501,1
7,143,16,0.0412035419822578,1
7,144,16,0.0420566382289717,1
7,145,16,0.0448617387609338,1
7,146,16,0.0605946774631808,1
7,147,16,0.107370292215418,1
7,148,16,0.18970002743161,1
7,149,16,0.267927283655562,2
7,150,16,0.279344793707979,2
7,151,16,0.193524903031292,1
8,128,16,0.067130495307949,1
8,129,16,0.0642518091150975,1
8,130,16,0.063356324067401,1
8,131,16,0.0550120237131604,1
8,132,16,0.047192533480881,1
8,133,16,0.0420416183196439,1
8,145,16,0.0431816418731109,1
8,146,16,0.0509663316567265,1
8,147,16,0.0697372011124552,1
8,148,16,0.101202937941844,1
8,149,16,0.132768364147829,1
8,150,16,0.141414252170285,1
9,129,16,0.0473361579846184,1
9,130,16,0.0540349185966331,1
9,131,16,0.0518134696816696,1
9,132,16,0.0479916975477733,1
9,133,16,0.0454948241543845,1
9,134,16,0.0436300818657509,1
9,135,16,0.0429492198600702,1
9,136,16,0.0426000583321806,1
9,143,16,0.0424071000765853,1
9,144,16,0.0447119884266462,1
9,145,16,0.0444977627796396,1
9,146,16,0.0449110860296287,1
9,147,16,0.0479543856707859,1
9,148,16,0.0546790553560543,1
9,149,16,0.0612348078321009,1
10,130,16,0.0422909607093013,1
10,131,16,0.0447193226624285,1
10,132,16,0.0457809701879563,1
10,133,16,0.0462403696320747,1
10,134,16,0.0462407913573906,1
10,135,16,0.0466107201537208,1
10,136,16,0.0451988243466048,1
10,142,16,0.0440511691869404,1
10,143,16,0.0667714556755447,1
10,145,16,0.0831502721058246,1
10,146,16,0.0562169794484387,1
10,147,16,0.0426630819366007,1
10,148,16,0.0434055212451373,1
11,135,16,0.0465593832066124,1
11,136,16,0.0452677791391215,1
11,142,16,0.0614591440732195,1
11,146,16,0.0789457031467283,1
12,136,16,0.0442939505038947,1
12,137,16,0.0417149758422763,1
12,140,16,0.0431426836453711,1
12,141,16,0.0495504591961509,1
13,140,16,0.0508923458974605,1
1,125,17,0.0516970410540728,1
1,126,17,0.0462404561398318,1
1,140,17,0.0437164490477529,1
1,141,17,0.0623873506800418,1
1,142,17,0.0900638909528198,1
1,143,17,0.0939109287585263,1
1,144,17,0.0754498598012034,1
1,145,17,0.064533175595089,1
1,146,17,0.0653419690566943,1
1,147,17,0.0623778618604341,1
1,148,17,0.0572338673197656,1
1,149,17,0.0583464165502489,1
1,150,17,0.0700399566353915,1
1,151,17,0.0870101184663178,1
2,124,17,0.0534006923821356,1
2,125,17,0.053177821366153,1
2,126,17,0.04788876953702,1
2,140,17,0.0439719388948997,1
2,141,17,0.0540191741848396,1
2,142,17,0.0725863394995198,1
2,143,17,0.0757295393799314,1
2,144,17,0.0651153565802169,1
2,145,17,0.0615863158829021,1
2,146,17,0.0654550725423773,1
2,147,17,0.0664492305005244,1
2,148,17,0.0652402143073968,1
2,149,17,0.0775563561271757,1
2,150,17,0.110504868353793,1
2,151,17,0.129379141612939,1
3,125,17,0.0539690429395959,1
3,126,17,0.0484971299321425,1
3,127,17,0.0415118312982816,1
3,140,17,0.0435448609115305,1
3,141,17,0.0454848541353779,1
3,142,17,0.0506448904582549,1
3,143,17,0.0538401193478319,1
3,144,17,0.0552477249108689,1
3,145,17,0.0572066984772991,1
3,146,17,0.0626256579239332,1
3,147,17,0.0709387992654107,1
3,148,17,0.080535504859703,1
3,149,17,0.11964954929026,1
3,150,17,0.192643410613308,1
3,151,17,0.212924591966699,1
3,152,17,0.140427847469869,1
4,126,17,0.0595871594632955,1
4,127,17,0.0493090106393295,1
4,140,17,0.0433302189459428,1
4,141,17,0.0433900039162062,1
4,142,17,0.0470589168432939,1
4,143,17,0.0516822806680164,1
4,144,17,0.0554612260554098,1
4,145,17,0.0573115458789132,1
4,146,17,0.0664692083856813,1
4,147,17,0.0928655365812325,1
4,148,17,0.126959919745024,1
4,149,17,0.173124362600032,1
4,150,17,0.232385398632503,1
4,151,17,0.229789755007437,1
4,152,17,0.153069853197201,1
5,127,17,0.0627993114328565,1
5,128,17,0.0529759230745341,1
5,140,17,0.0424412598271731,1
5,141,17,0.0426696619328757,1
5,142,17,0.0466342772973281,1
5,143,17,0.0505514783007835,1
5,144,17,0.0532882593315701,1
5,145,17,0.0545853242012285,1
5,146,17,0.072494700751069,1
5,147,17,0.130108845357609,1
5,148,17,0.21254865088125,1
5,149,17,0.274313762077889,2
5,150,17,0.285806923163897,2
5,151,17,0.224103838029104,1
6,128,17,0.0727770728837369,1
6,129,17,0.0549396221271963,1
6,130,17,0.0419734123598996,1
6,141,17,0.0421764379557283,1
6,142,17,0.0465586695176163,1
6,143,17,0.048335084682876,1
6,144,17,0.0497279298598566,1
6,145,17,0.0527755386686646,1
6,146,17,0.0771065266036873,1
6,147,17,0.154308806481023,1
6,148,17,0.273028602838302,2
6,149,17,0.358691568443597,2
6,150,17,0.344527242460568,2
6,151,17,0.229572101490555,2
7,127,17,0.0681123529443824,1
7,128,17,0.0803462258871522,1
7,129,17,0.066825009383929,1
7,130,17,0.0532825660398055,1
7,131,17,0.0453545680464394,1
7,137,17,0.0411988164960258,1
7,141,17,0.0415707160471976,1
7,142,17,0.044230586275181,1
7,143,17,0.0449281848284945,1
7,144,17,0.046725672742712,1
7,145,17,0.0504451548605638,1
7,146,17,0.0681342610338698,1
7,147,17,0.123335677261012,1
7,148,17,0.214553078867305,1
7,149,17,0.286166968448977,2
7,150,17,0.277708715751687,2
7,151,17,0.184026502689483,1
8,128,17,0.0632763800863642,1
8,129,17,0.0600729221463924,1
8,130,17,0.0561050546309462,1
8,131,17,0.0510342943134039,1
8,132,17,0.0473141687941087,1
8,133,17,0.0438936547814524,1
8,136,17,0.0410401261257146,1
8,137,17,0.0421352845936519,1
8,143,17,0.0420991189444462,1
8,144,17,0.0442234358683826,1
8,145,17,0.0472985000766026,1
8,146,17,0.0553231813020058,1
8,147,17,0.0767709522003983,1
8,148,17,0.112432704534399,1
8,149,17,0.143465697122328,1
8,150,17,0.144725358200507,1
9,129,17,0.0476223905259473,1
9,130,17,0.0509807514184893,1
9,131,17,0.0499232805956094,1
9,132,17,0.0483815609753819,1
9,133,17,0.047395145461496,1
9,134,17,0.0456423793543355,1
9,135,17,0.0443496777196763,1
9,136,17,0.0441712852076839,1
9,137,17,0.0423352229438988,1
9,143,17,0.0441936231325895,1
9,144,17,0.0476696345747975,1
9,145,17,0.0473968215492899,1
9,146,17,0.0472630102692493,1
9,147,17,0.0503621939214978,1
9,148,17,0.058074987648855,1
10,134,17,0.0463727751610623,1
10,135,17,0.0462741725381644,1
10,136,17,0.0460657266906795,1
10,137,17,0.0417114668713786,1
10,142,17,0.047687325411126,1
10,146,17,0.0620005907182194,1
11,136,17,0.0452545001984055,1
11,141,17,0.0435678206109403,1
12,140,17,0.0445630761362556,1
12,141,17,0.056953549746329,1
1,141,18,0.0664626770500197,1
1,142,18,0.0985064046450513,1
1,143,18,0.109705893522619,1
1,144,18,0.0905526868141503,1
1,145,18,0.0758985593171147,1
1,146,18,0.0706914249272275,1
2,125,18,0.0534543704454207,1
2,140,18,0.0485092518316071,1
2,141,18,0.0589881256857362,1
2,142,18,0.0785265892837478,1
2,143,18,0.0863570551877102,1
2,144,18,0.0752087248350016,1
2,145,18,0.0704274789468234,1
2,146,18,0.0705552454973361,1
3,140,18,0.0482020195322404,1
3,141,18,0.0509462726705472,1
3,142,18,0.0558576640725586,1
3,143,18,0.0608707237161103,1
3,144,18,0.0628214466052064,1
3,145,18,0.0645240328065097,1
3,146,18,0.068936955698599,1
3,150,18,0.153066176617524,1
3,151,18,0.152126453665537,1
4,140,18,0.0483346142969467,1
4,141,18,0.0488412145360368,1
4,142,18,0.0524045988129233,1
4,143,18,0.0586674306166697,1
4,144,18,0.0639610673569294,1
4,145,18,0.0661548662300274,1
4,146,18,0.0744837844237074,1
4,147,18,0.0982410961674728,1
4,148,18,0.128270360876625,1
4,149,18,0.161982249992366,1
4,150,18,0.191854849153396,1
4,151,18,0.174720279330087,1
5,140,18,0.046732642023894,1
5,141,18,0.047171268792837,1
5,142,18,0.0509258189927262,1
5,143,18,0.0552621933332451,1
5,144,18,0.0589966737334853,1
5,145,18,0.0621511034021165,1
5,146,18,0.0804233691795526,1
5,147,18,0.1331962963953,1
5,148,18,0.201459718917265,1
5,149,18,0.244443109341393,1
5,150,18,0.239562774224183,1
6,128,18,0.0547126149590771,1
6,129,18,0.0487065273649556,1
6,142,18,0.0511525450106348,1
6,143,18,0.0526630839911599,1
6,146,18,0.0835824378266587,1
6,147,18,0.155514194755087,1
6,148,18,0.254692050983866,1
6,149,18,0.311797508351675,2
6,150,18,0.282602827229216,2
6,151,18,0.194181799684887,1
7,127,18,0.0571266193278918,1
7,128,18,0.0651229043820245,1
7,129,18,0.0602542964726376,1
7,130,18,0.049691283011252,1
7,147,18,0.124580686087831,1
7,148,18,0.202850979920944,1
7,149,18,0.252570513121626,1
7,150,18,0.229453672371075,1
7,151,18,0.155777427046495,1
8,128,18,0.0574009192054747,1
8,129,18,0.0570873934667785,1
8,130,18,0.0511695545983761,1
8,132,18,0.0463085377446753,1
8,133,18,0.0445459854474921,1
8,134,18,0.0425358155090588,1
8,148,18,0.109483546959914,1
8,149,18,0.134642662840256,1
8,150,18,0.130352159237943,1
9,129,18,0.0478312418785436,1
9,134,18,0.0460562811249503,1
9,135,18,0.0442286425540135,1
1,142,19,0.0988693371265255,1
1,143,19,0.114531025877325,1
1,144,19,0.103134050603751,1
1,145,19,0.0877449045417178,1
2,142,19,0.0810066639520532,1
2,143,19,0.0911188584574785,1
2,144,19,0.085041504691705,1
2,145,19,0.0795111502875907,1
3,143,19,0.0676816740756235,1
3,144,19,0.0701809318390675,1
5,148,19,0.16850608110604,1
5,149,19,0.191883526474877,1
6,147,19,0.141055017895427,1
6,148,19,0.207841720563162,1
6,149,19,0.235390310456443,1
6,150,19,0.206323509425928,1
7,128,19,0.0569063705782966,1
7,129,19,0.0559183708911086,1
7,148,19,0.170220481022923,1
7,149,19,0.195610951086178,1
7,150,19,0.170590052974755,1
8,129,19,0.0550138620029989,1
8,149,19,0.116270134572332,1
1,142,20,0.0959568696545235,1
1,143,20,0.113682276645406,1
1,144,20,0.109408436599806,1
1,145,20,0.0919530311323251,1
2,142,20,0.0829204912827431,1
2,143,20,0.0944755432622266,1
2,144,20,0.0920308448598432,1
2,145,20,0.0828898945704012,1
3,143,20,0.0734937680244319,1
3,144,20,0.0748869754526453,1
6,148,20,0.156925590439232,1
6,149,20,0.163168671440684,1
7,149,20,0.141407201788081,1
1,142,21,0.0939748255506197,1
1,143,21,0.112086327474942,1
1,144,21,0.108435678498073,1
1,145,21,0.0901139519105108,1
2,142,21,0.0854551253121092,1
2,143,21,0.0984605230933755,1
2,144,21,0.0953392583361254,1
2,145,21,0.0833952134133392,1
3,143,21,0.0785597541951288,1
3,144,21,0.0787719360963738,1
1,143,22,0.108808256594465,1
1,144,22,0.103307185066131,1
2,142,22,0.0842459252899978,1
2,143,22,0.0988100036186195,1
2,144,22,0.0944039472797506,1
3,143,22,0.0789582359580392,1
2,143,23,0.0940035244990401,1
