x,y,z,signal,cytoplasm.p
745,744,9,0.0414670986777549,1
746,744,9,0.0436537822878309,1
744,744,10,0.0472884435498389,1
744,745,10,0.044725662059004,1
745,743,10,0.0426586727443556,1
745,744,10,0.0521883077932157,1
745,745,10,0.046056589308835,1
746,743,10,0.044656428819644,1
746,744,10,0.0545973271525271,1
746,745,10,0.0466372293745394,1
747,744,10,0.0450202912595071,1
750,743,10,0.0468654638714626,1
750,744,10,0.043725775665316,1
751,743,10,0.0490078879503086,1
751,744,10,0.0442752134643787,1
743,744,11,0.0421298129780148,1
743,745,11,0.041901416279047,1
744,743,11,0.0418837524763927,1
744,744,11,0.0511325563120082,1
744,745,11,0.0498528200274454,1
744,746,11,0.0435443256447834,1
745,743,11,0.045149141860351,1
745,744,11,0.0573301342332216,1
745,745,11,0.0539756067156664,1
745,746,11,0.0457334449888954,1
746,743,11,0.0461629884433422,1
746,744,11,0.0574911251691984,1
746,745,11,0.0523789006023276,1
746,746,11,0.0440724717221281,1
747,744,11,0.0483471849554014,1
747,745,11,0.043923094452543,1
748,744,11,0.0426873527692041,1
749,744,11,0.0418019891290892,1
750,743,11,0.0552367816795948,1
750,744,11,0.0496000551746475,1
751,742,11,0.0431935069526717,1
751,743,11,0.0651042457401634,1
751,744,11,0.0558794153667362,1
752,743,11,0.0474211356357719,1
752,744,11,0.0424530086619352,1
743,743,12,0.0413359015539994,1
743,744,12,0.0430690222901942,1
743,745,12,0.043997080211809,1
743,746,12,0.0426354643351442,1
744,743,12,0.0435687992299425,1
744,744,12,0.0508717354243296,1
744,745,12,0.0537094547874561,1
744,746,12,0.0485140800458007,1
744,747,12,0.0434154399001631,1
745,743,12,0.0454762141731368,1
745,744,12,0.057951205861904,1
745,745,12,0.061172960192504,1
745,746,12,0.0531138759134462,1
745,747,12,0.0444893850440372,1
745,748,12,0.0410675301611458,1
746,743,12,0.0444851029100604,1
746,744,12,0.0548468425576987,1
746,745,12,0.0556693420920707,1
746,746,12,0.0494914987529474,1
746,747,12,0.0441448841215617,1
747,743,12,0.0412590069714006,1
747,744,12,0.0475430358790058,1
747,745,12,0.0454274940856809,1
747,746,12,0.0426505356084527,1
747,747,12,0.0419894379219037,1
747,748,12,0.0410779192021009,1
748,744,12,0.0438386845085455,1
748,745,12,0.042118666994185,1
748,748,12,0.0411510885444092,1
749,744,12,0.0410576953105096,1
750,743,12,0.056318858552637,1
750,744,12,0.0505123443541621,1
750,745,12,0.0414417519049224,1
751,742,12,0.0442838588333547,1
751,743,12,0.0717941339003398,1
751,744,12,0.0620019315884546,1
751,745,12,0.04388161398301,1
752,743,12,0.0493928636896406,1
752,744,12,0.0444809856814956,1
752,746,12,0.0415546174942734,1
752,747,12,0.0430488497625838,1
753,746,12,0.0456330851771813,1
753,747,12,0.0450479953687207,1
754,746,12,0.0441647484652875,1
754,747,12,0.041850847088283,1
738,742,13,0.0442904550498341,1
738,743,13,0.0531143949599889,1
739,742,13,0.0482569195175947,1
739,743,13,0.0616999492285974,1
739,744,13,0.0518874500342008,1
740,742,13,0.0418419476027706,1
740,743,13,0.0524762218290733,1
740,744,13,0.04519388259098,1
742,742,13,0.0483034931313273,1
742,743,13,0.0457393978039314,1
743,741,13,0.0469130485446065,1
743,742,13,0.0573216456595555,1
743,743,13,0.0524368391726502,1
743,744,13,0.0442617561014137,1
743,745,13,0.045172334049358,1
744,741,13,0.0457907401577746,1
744,742,13,0.0530047301576509,1
744,743,13,0.0498386922293629,1
744,744,13,0.0489673915065127,1
744,745,13,0.055975001031605,1
744,746,13,0.0528743089003419,1
745,742,13,0.0439655156939345,1
745,743,13,0.0470572623824392,1
745,744,13,0.0561939035042303,1
745,745,13,0.0665704386817014,1
745,746,13,0.0607398753267506,1
745,747,13,0.0516814696577935,1
746,743,13,0.0437785453971515,1
746,744,13,0.051297732060735,1
746,745,13,0.0577865545664547,1
746,746,13,0.0542241435018357,1
746,747,13,0.0491482251592759,1
747,743,13,0.0413843648215514,1
747,744,13,0.0463564035680297,1
747,745,13,0.0476730354109988,1
747,746,13,0.0470240704373841,1
747,747,13,0.0470431940584396,1
747,748,13,0.0437303984235864,1
748,744,13,0.0434632732831087,1
748,745,13,0.0438459484567751,1
748,746,13,0.0428632149293011,1
748,747,13,0.0436823460678807,1
748,748,13,0.0429651616176847,1
749,748,13,0.0410992190339212,1
750,743,13,0.0478094202968133,1
750,744,13,0.0462327299157752,1
750,745,13,0.0423116090295759,1
751,743,13,0.0630920482761729,1
751,744,13,0.0586649543321225,1
751,745,13,0.0462279287352557,1
751,746,13,0.0410068395628002,1
752,743,13,0.0442428784867925,1
752,744,13,0.0426924323965668,1
752,745,13,0.0433890955847565,1
752,746,13,0.0525275533694469,1
752,747,13,0.0546479504106393,1
752,748,13,0.0439562350336173,1
753,745,13,0.0433042990592195,1
753,746,13,0.0664149193613617,1
753,747,13,0.0693894507423533,1
753,748,13,0.0491906031467889,1
754,745,13,0.0411740158034101,1
754,746,13,0.063394511835429,1
754,747,13,0.0644525179250561,1
754,748,13,0.044266668119997,1
763,736,13,0.0434858193673048,1
763,737,13,0.0488293143126998,1
764,737,13,0.0438643719056716,1
737,737,14,0.0534283586442054,1
737,738,14,0.04784136869286,1
738,736,14,0.0425682775449133,1
738,737,14,0.0543255035594914,1
738,738,14,0.0469442562179829,1
738,742,14,0.0488005396699919,1
739,742,14,0.0579161594068059,1
739,743,14,0.0849108563515336,1
740,742,14,0.0447348048475833,1
740,743,14,0.0646734262962993,1
740,744,14,0.0502499771403252,1
741,743,14,0.0409846476197347,1
742,741,14,0.0419551186726388,1
742,742,14,0.0538627303128458,1
742,743,14,0.0478478081140297,1
742,744,14,0.0414283080587945,1
743,741,14,0.0521293419432774,1
743,742,14,0.068627160606928,1
743,743,14,0.0578310087401382,1
743,744,14,0.0459674430651359,1
743,745,14,0.0453862461057452,1
744,741,14,0.0483053422346355,1
744,742,14,0.0602044571910741,1
744,743,14,0.0524313999974221,1
744,744,14,0.0478738091017753,1
744,745,14,0.0542677109710089,1
745,732,14,0.0447335612985749,1
745,741,14,0.0417277762869608,1
745,742,14,0.0470561864422102,1
745,743,14,0.0476762686384207,1
745,744,14,0.0538436012850554,1
745,745,14,0.0648650301648224,1
745,746,14,0.0625965859108103,1
746,731,14,0.0423999064159084,1
746,732,14,0.0620847789860893,1
746,733,14,0.0495821588823959,1
746,742,14,0.0435050078691781,1
746,743,14,0.0455646575413094,1
746,744,14,0.050073896007468,1
746,745,14,0.0579455341970787,1
746,746,14,0.0581751798517897,1
747,732,14,0.0536415786385357,1
747,733,14,0.0427656044422425,1
747,742,14,0.0415769878595879,1
747,743,14,0.0444627839087267,1
747,744,14,0.0474487316102891,1
747,745,14,0.056607448430347,1
747,746,14,0.062875735629526,1
747,747,14,0.0573324104685805,1
748,743,14,0.0413287727741403,1
748,744,14,0.0448088473775649,1
748,745,14,0.0575711880984012,1
748,746,14,0.0660771552304709,1
748,747,14,0.0599372617630437,1
749,745,14,0.0503149877197913,1
749,746,14,0.0561351593304196,1
749,747,14,0.0512531319052114,1
749,748,14,0.0447497139188472,1
750,743,14,0.0432232169605032,1
750,744,14,0.0450175500449538,1
750,745,14,0.0458637959586517,1
750,746,14,0.0438565780974297,1
750,748,14,0.041300325238889,1
750,749,14,0.0427057843282028,1
751,743,14,0.0546966272442167,1
751,744,14,0.0553518748436913,1
751,745,14,0.0488954765266824,1
751,746,14,0.042488363300918,1
752,743,14,0.0435276620880706,1
752,744,14,0.0439364409774442,1
752,745,14,0.0460312155023285,1
752,746,14,0.0537357369254122,1
752,747,14,0.0560100258597638,1
752,748,14,0.0420870808493712,1
753,745,14,0.0462630454779065,1
753,746,14,0.073763304568639,1
753,747,14,0.0808715496489212,1
753,748,14,0.0515446522331934,1
754,745,14,0.0413146476794251,1
754,746,14,0.067831100005822,1
754,747,14,0.0739320541690813,1
754,748,14,0.0462927933328818,1
755,746,14,0.0411651757919807,1
755,747,14,0.0438445940697029,1
760,731,14,0.0438661858652034,1
761,730,14,0.0444032800886739,1
761,731,14,0.0561693244877422,1
761,732,14,0.0432362444880501,1
762,731,14,0.0447474187599165,1
762,737,14,0.0423376857116089,1
763,736,14,0.050708527727077,1
763,737,14,0.0582405851228977,1
764,736,14,0.0429132596667877,1
764,737,14,0.0496193680314217,1
736,737,15,0.0431852319450309,1
737,736,15,0.0500814816564194,1
737,737,15,0.0647004113097819,1
737,738,15,0.0518848656149573,1
738,736,15,0.0505717751832948,1
738,737,15,0.064542415704895,1
738,738,15,0.0506442146164025,1
738,742,15,0.0432746890759821,1
739,737,15,0.0428582353265326,1
739,742,15,0.0558668068611378,1
739,743,15,0.0885765036107905,1
740,742,15,0.0413045316785784,1
740,743,15,0.065359654486288,1
741,743,15,0.0428503144600225,1
742,742,15,0.0550624415153495,1
742,743,15,0.0489132700909724,1
742,744,15,0.0438878803886655,1
743,741,15,0.0528131695430063,1
743,742,15,0.0747243354625488,1
743,743,15,0.0625203725767988,1
743,744,15,0.0495242419390126,1
744,741,15,0.0483143011942309,1
744,742,15,0.0664442076438773,1
744,743,15,0.0577599966850227,1
744,744,15,0.0505637678090275,1
745,732,15,0.0485772415219587,1
745,741,15,0.0415320389696684,1
745,742,15,0.0515368016542359,1
745,743,15,0.0508938111225965,1
745,744,15,0.0536770468189497,1
745,745,15,0.0609789287000471,1
746,731,15,0.0479378951295873,1
746,732,15,0.0740590637767193,1
746,733,15,0.0526512378351711,1
746,742,15,0.0468034053692078,1
746,743,15,0.0481831824681303,1
746,744,15,0.0507013259562978,1
746,745,15,0.0564271067904523,1
746,746,15,0.0600601676589539,1
747,732,15,0.061125380926095,1
747,733,15,0.0435077301601596,1
747,742,15,0.0465087275080913,1
747,743,15,0.047394247943516,1
747,744,15,0.0484974273025575,1
747,745,15,0.0617459281014999,1
747,746,15,0.0769703039199173,1
747,747,15,0.0628592234613882,1
748,742,15,0.0417049463491867,1
748,743,15,0.0428765182003238,1
748,744,15,0.0458586271201646,1
748,745,15,0.0702643199101842,1
748,746,15,0.0930083933286256,1
748,747,15,0.0746505064985925,1
749,744,15,0.0426087848021788,1
749,745,15,0.058636677109018,1
749,746,15,0.0744191415022089,1
749,747,15,0.061024804844988,1
749,748,15,0.0481934282306127,1
750,744,15,0.0444153803611993,1
750,745,15,0.0481231298644934,1
750,746,15,0.048283407111474,1
750,747,15,0.043468271809449,1
750,748,15,0.043188189428977,1
750,749,15,0.0461972779555656,1
751,743,15,0.0467664395232488,1
751,744,15,0.0502218945596742,1
751,745,15,0.0481102185817451,1
751,746,15,0.0416295169917239,1
751,749,15,0.043460259028447,1
751,750,15,0.0472288559253964,1
752,743,15,0.0416767610405741,1
752,744,15,0.0429205100981803,1
752,745,15,0.043796249750317,1
752,746,15,0.0467594702420669,1
752,747,15,0.0485278455926504,1
753,745,15,0.0440022814907051,1
753,746,15,0.0666464681867291,1
753,747,15,0.0744726357365102,1
753,748,15,0.0475774389326604,1
754,746,15,0.060457643769188,1
754,747,15,0.06818554391363,1
754,748,15,0.0426066139981489,1
755,747,15,0.0417390844728351,1
760,731,15,0.0479816139873354,1
761,730,15,0.0502464303222838,1
761,731,15,0.0664529233004059,1
761,732,15,0.0446405924933586,1
762,731,15,0.0498703324415249,1
763,736,15,0.0504879762003319,1
763,737,15,0.0570264054980178,1
764,736,15,0.042510030790706,1
764,737,15,0.0479308123069742,1
736,737,16,0.0410671300627692,1
737,736,16,0.0507776203913317,1
737,737,16,0.0649381995071307,1
737,738,16,0.0490554942503917,1
738,736,16,0.0508842033548227,1
738,737,16,0.0655862777762351,1
738,738,16,0.0492858590008337,1
739,742,16,0.0493067776578492,1
742,742,16,0.0511396391346214,1
742,743,16,0.0488768827656392,1
743,741,16,0.0477500813821725,1
743,742,16,0.0706421587595549,1
743,743,16,0.0635243599788471,1
743,744,16,0.0527847247111225,1
744,741,16,0.0450587601777458,1
744,742,16,0.06584855307558,1
744,743,16,0.0607833616949015,1
744,744,16,0.0533701497371419,1
745,732,16,0.0429347244040199,1
745,742,16,0.0510325317178529,1
745,743,16,0.0512436160519296,1
745,744,16,0.0528402410642461,1
746,731,16,0.0449001968657028,1
746,732,16,0.0708843696659858,1
746,733,16,0.0454888497124093,1
746,742,16,0.0464277670609085,1
746,743,16,0.048345611595569,1
746,744,16,0.0504526918489017,1
746,745,16,0.0531309125348615,1
747,732,16,0.0566665764823299,1
747,742,16,0.0486224904856606,1
747,743,16,0.0485804855628502,1
747,744,16,0.0477321850899209,1
747,745,16,0.0576279209668591,1
747,746,16,0.0767338565928038,1
748,742,16,0.0427893913720796,1
748,743,16,0.0426103013912956,1
748,744,16,0.0446363752401996,1
748,745,16,0.0699398833806228,1
748,746,16,0.101480260184191,1
749,744,16,0.0411402750747708,1
749,745,16,0.0558846166456323,1
749,746,16,0.0788270307241815,1
749,747,16,0.0630738059528929,1
750,744,16,0.0424046156819359,1
750,745,16,0.0454788634731982,1
750,746,16,0.0487257969678512,1
750,747,16,0.0447667586503648,1
750,748,16,0.0468311311053606,1
751,742,16,0.0419064769828378,1
751,743,16,0.042822307573659,1
751,744,16,0.0456153132398306,1
751,745,16,0.0445746843959124,1
751,749,16,0.0462137198361509,1
751,750,16,0.056839905587164,1
752,744,16,0.041341205560857,1
752,750,16,0.0421046338139618,1
752,751,16,0.0433243526386639,1
753,746,16,0.052955680259371,1
753,747,16,0.0570661071517952,1
753,748,16,0.0412956862604141,1
754,746,16,0.0504781089092868,1
754,747,16,0.0552889728908046,1
760,731,16,0.0415390001407481,1
761,730,16,0.0473315622600221,1
761,731,16,0.0615636346303355,1
762,731,16,0.0455490969584997,1
763,735,16,0.044063218095485,1
763,736,16,0.0517730002715478,1
763,737,16,0.0533281826614752,1
764,735,16,0.0413786877499912,1
764,736,16,0.0495717941717475,1
764,737,16,0.0512005838495035,1
765,736,16,0.0466256589620263,1
765,737,16,0.0455852301672965,1
737,736,17,0.0455676096185207,1
737,737,17,0.058405566229171,1
737,738,17,0.0454738730569601,1
738,736,17,0.0444249070279507,1
738,737,17,0.0584200724986909,1
738,738,17,0.0457210905998335,1
738,741,17,0.0444167861122523,1
740,742,17,0.0441386582664174,1
742,742,17,0.0487548581675045,1
742,743,17,0.0502769351201338,1
743,741,17,0.0457524064079064,1
743,742,17,0.0657929394012296,1
743,743,17,0.0635410343490296,1
744,741,17,0.04540584011273,1
744,742,17,0.0645621232533111,1
744,743,17,0.0631079602967458,1
745,742,17,0.0502792275756971,1
745,743,17,0.0522416614524116,1
745,744,17,0.0543111540852812,1
746,732,17,0.0522391473207207,1
746,742,17,0.0449396741399853,1
746,743,17,0.0487384973879415,1
746,744,17,0.0521621770438344,1
747,732,17,0.0413258882811142,1
747,742,17,0.0473881545533747,1
747,743,17,0.0491766375507509,1
747,744,17,0.048776522953925,1
747,745,17,0.0567546305655955,1
748,742,17,0.0417211692570117,1
748,743,17,0.0428613252754818,1
748,744,17,0.0454099924850711,1
748,745,17,0.0681872632553025,1
748,746,17,0.0984956236158218,1
749,745,17,0.0551435425376376,1
749,746,17,0.0784413304823837,1
749,747,17,0.0662493867681368,1
750,745,17,0.0439085854796557,1
750,746,17,0.0495183053441811,1
750,747,17,0.0465881632560551,1
750,748,17,0.0509844874722494,1
751,744,17,0.0411083537123982,1
751,748,17,0.04112833700429,1
751,749,17,0.0520035001903603,1
752,750,17,0.0446793939257886,1
753,746,17,0.0421042066819111,1
753,747,17,0.0435599267781042,1
754,746,17,0.0414095088418281,1
754,747,17,0.0437791698750231,1
761,731,17,0.0483114788786553,1
762,735,17,0.0410018194095205,1
763,735,17,0.0472744292931875,1
763,736,17,0.0547198167298563,1
763,737,17,0.0512003946137848,1
764,735,17,0.051138811904194,1
764,736,17,0.0637810230874497,1
764,737,17,0.0603496334277046,1
765,735,17,0.047566922833437,1
765,736,17,0.0603879996179817,1
765,737,17,0.0571442398766676,1
766,736,17,0.0429489792603708,1
766,737,17,0.0413208762379368,1
732,734,18,0.0416736683882575,1
732,735,18,0.0462153526700662,1
733,735,18,0.0439684137037976,1
736,737,18,0.0426189224299648,1
737,737,18,0.0492825717060636,1
737,738,18,0.0410957154697583,1
738,737,18,0.0439095127346772,1
738,741,18,0.0563751210351657,1
739,741,18,0.049672591928982,1
740,741,18,0.0433185674324074,1
740,742,18,0.0518255267003165,1
741,742,18,0.0415382513079757,1
742,742,18,0.0449630907084873,1
743,741,18,0.0436275488104881,1
743,742,18,0.0592163764028639,1
743,743,18,0.0582298743812208,1
744,741,18,0.044129772297742,1
744,742,18,0.059372987883637,1
744,743,18,0.0585930934196404,1
745,742,18,0.0463475419296611,1
745,743,18,0.048766055515315,1
746,743,18,0.045031761647426,1
746,744,18,0.0497798885814692,1
747,742,18,0.0423888577533053,1
747,743,18,0.0454330792427492,1
747,744,18,0.0463423298372953,1
747,745,18,0.0540403307381871,1
748,744,18,0.0433793120981012,1
748,745,18,0.0616417132878597,1
748,746,18,0.0848679539107432,1
749,745,18,0.0537986767254426,1
749,746,18,0.072553077266912,1
749,747,18,0.068030841010248,1
750,745,18,0.0429822279761415,1
750,746,18,0.0489534259104747,1
750,747,18,0.0479752772941273,1
750,748,18,0.0559640902407398,1
751,748,18,0.0426953087794906,1
751,749,18,0.0540258244686672,1
762,735,18,0.041364054422203,1
762,736,18,0.0412164073077601,1
763,735,18,0.0509926894889701,1
763,736,18,0.0612661560805827,1
763,737,18,0.0528374511890794,1
764,735,18,0.063637495904939,1
764,736,18,0.083473064988001,1
764,737,18,0.0733502624688604,1
765,735,18,0.0578263102875803,1
765,736,18,0.0753712350634625,1
765,737,18,0.0669483478186247,1
766,735,18,0.0415326012700896,1
766,736,18,0.049359298679883,1
766,737,18,0.0447019291965151,1
732,734,19,0.062091845588498,1
732,735,19,0.0695954148985563,1
733,734,19,0.0569417576576883,1
733,735,19,0.0634563594750259,1
733,736,19,0.0439247678369696,1
734,735,19,0.0443577094242502,1
736,737,19,0.0416017669252643,1
737,737,19,0.0418606846422865,1
739,741,19,0.0533500204634099,1
740,741,19,0.0450949447505233,1
740,742,19,0.0533730693739442,1
743,742,19,0.0506141261371337,1
744,742,19,0.051779336964756,1
744,743,19,0.0513503882511393,1
745,742,19,0.0424159941553629,1
745,743,19,0.0444963975790977,1
746,743,19,0.0412125928563451,1
747,743,19,0.0412913581691914,1
747,744,19,0.0440979942138422,1
748,744,19,0.0414927860748809,1
748,745,19,0.0560585296778269,1
749,745,19,0.051455484362555,1
749,746,19,0.0665828579515811,1
750,741,19,0.0410327405259516,1
750,742,19,0.0415933486391508,1
750,745,19,0.0417680456478942,1
750,746,19,0.0479496709980236,1
750,747,19,0.0500802056670021,1
750,748,19,0.0577792338475095,1
751,741,19,0.0416197605387426,1
751,742,19,0.0413899418685174,1
751,748,19,0.0435158051186121,1
751,749,19,0.0513824069347386,1
762,736,19,0.0410536510728649,1
763,735,19,0.0508035781251987,1
763,736,19,0.0631859902936566,1
763,737,19,0.0519105476053485,1
764,735,19,0.070529022833463,1
764,736,19,0.0946933806080924,1
764,737,19,0.0782344201475874,1
765,735,19,0.0626230572844852,1
765,736,19,0.0819228838277814,1
765,737,19,0.067679268078629,1
766,735,19,0.0444840540035055,1
766,736,19,0.0515266261793062,1
766,737,19,0.0436602460393072,1
731,734,20,0.0429747369450495,1
732,734,20,0.0620612272492168,1
732,735,20,0.0707896166382792,1
733,734,20,0.0569206930188327,1
733,735,20,0.0646902953089352,1
733,736,20,0.0429763941092716,1
734,735,20,0.0456921699752856,1
739,741,20,0.054706786498942,1
740,741,20,0.0438951605570996,1
743,742,20,0.0428563672996526,1
744,742,20,0.0455023503292529,1
749,745,20,0.0472104135529281,1
750,741,20,0.0441591470880148,1
750,742,20,0.0417973177102054,1
750,746,20,0.0480955501101806,1
751,741,20,0.0443777494868576,1
751,747,20,0.042328994385387,1
751,748,20,0.0453544112511297,1
763,735,20,0.0484684850510703,1
763,736,20,0.0572077852309978,1
763,737,20,0.0436170570415714,1
764,734,20,0.0421728046299298,1
764,735,20,0.0716212643679652,1
764,736,20,0.0918165110781401,1
764,737,20,0.069042522195944,1
765,735,20,0.0657278639409457,1
765,736,20,0.0818031570919449,1
765,737,20,0.0601156623851382,1
766,735,20,0.0466581047776764,1
766,736,20,0.0519344724069235,1
732,734,21,0.0510210369996272,1
732,735,21,0.0591982584344847,1
733,734,21,0.0475476207901324,1
733,735,21,0.0558002769891875,1
733,736,21,0.0416401601492155,1
734,735,21,0.0421498962945008,1
750,741,21,0.0410752590885698,1
751,741,21,0.0424323441214562,1
764,735,21,0.0641619816228111,1
764,736,21,0.076835438326587,1
764,737,21,0.0556384804497227,1
765,735,21,0.0666168987540028,1
765,736,21,0.0781604181681169,1
765,737,21,0.0544615478210123,1
766,736,21,0.0550822734186663,1
732,735,22,0.0420240058809703,1
733,735,22,0.0414766145310367,1
764,736,22,0.0529355077317606,1
765,735,22,0.0571806217952661,1
765,736,22,0.0659502267238552,1
765,737,22,0.0450770538650066,1
766,736,22,0.0515796338074737,1
769,753,22,0.0435646279340295,1
770,753,22,0.0486227986695453,1
771,753,22,0.0458394494317608,1
765,736,23,0.0539598406769336,1
769,753,23,0.0430245464895714,1
770,752,23,0.0433632649091578,1
770,753,23,0.0550744066195044,1
770,754,23,0.0459892592401314,1
771,752,23,0.0450148196438701,1
771,753,23,0.0585033686553156,1
771,754,23,0.0528474752754342,1
772,752,23,0.0418295040025842,1
772,753,23,0.0514102570257924,1
772,754,23,0.0485050724255919,1
747,745,24,0.0529323393851565,1
748,745,24,0.0435792180079392,1
748,746,24,0.0683087579934249,1
749,746,24,0.047490455382889,1
770,752,24,0.0452947290088279,1
770,753,24,0.056736431496194,1
770,754,24,0.0478366540200977,1
771,752,24,0.0536574149648212,1
771,753,24,0.0720492128356404,1
771,754,24,0.0654459567874722,1
771,755,24,0.0432578011397743,1
772,752,24,0.0534805660756197,1
772,753,24,0.069799529951451,1
772,754,24,0.0661225880231567,1
772,755,24,0.0460689166642228,1
773,752,24,0.0428558536598448,1
773,753,24,0.0513660137147668,1
773,754,24,0.0499579864264139,1
725,729,25,0.0431862132674006,1
746,745,25,0.0492896977825553,1
747,745,25,0.0460704467701767,1
747,746,25,0.073801076018086,1
748,746,25,0.0573567461820018,1
748,747,25,0.0689081918693608,1
749,746,25,0.0410975159124531,1
749,747,25,0.0496909694206325,1
770,752,25,0.0460183745071329,1
770,753,25,0.0540948360318996,1
770,754,25,0.0463597557436176,1
771,752,25,0.0624419641084506,1
771,753,25,0.0801862135701777,1
771,754,25,0.0720210329337626,1
771,755,25,0.0474004765020277,1
772,751,25,0.0412543274424146,1
772,752,25,0.0668779575380135,1
772,753,25,0.0867692105829784,1
772,754,25,0.0811161070782637,1
772,755,25,0.0553464032280543,1
773,752,25,0.0516597940579033,1
773,753,25,0.0645694115318474,1
773,754,25,0.0631836924313585,1
773,755,25,0.0488175871048769,1
774,754,25,0.0419508797925406,1
723,728,26,0.0559435284282224,1
723,729,26,0.0529154379321117,1
724,727,26,0.0520345240347529,1
724,728,26,0.0835336798920591,1
724,729,26,0.0876819593349526,1
724,730,26,0.058312170291904,1
725,727,26,0.0542901164800997,1
725,728,26,0.0894417704175825,1
725,729,26,0.0961503658802333,1
725,730,26,0.0652423878147942,1
726,727,26,0.044290592921572,1
726,728,26,0.0622331884501417,1
726,729,26,0.0656135763803372,1
726,730,26,0.0483205243460078,1
747,746,26,0.0542133300321973,1
748,746,26,0.0460324157974583,1
748,747,26,0.0548294382783157,1
749,747,26,0.0439579543752899,1
770,752,26,0.0439724282044009,1
770,753,26,0.050607178482891,1
770,754,26,0.0444716266235235,1
771,752,26,0.0646355358986863,1
771,753,26,0.0827722548342049,1
771,754,26,0.075080596033256,1
771,755,26,0.0508084009326574,1
772,751,26,0.0421527537538527,1
772,752,26,0.0731999660543561,1
772,753,26,0.0981086636048111,1
772,754,26,0.0936016094595194,1
772,755,26,0.0652384408983761,1
773,752,26,0.0549984690289686,1
773,753,26,0.073957963242335,1
773,754,26,0.0753794857407966,1
773,755,26,0.0596112735005892,1
773,756,26,0.0415245046846978,1
774,753,26,0.0424824996970066,1
774,754,26,0.0463955699550601,1
774,755,26,0.044082014609084,1
723,727,27,0.0568101955793325,1
723,728,27,0.0733654824273765,1
723,729,27,0.0732865332855464,1
724,727,27,0.0737944311409932,1
724,728,27,0.130925640786747,1
724,729,27,0.139489714097918,1
724,730,27,0.0821573847303601,1
725,727,27,0.0792541952153079,1
725,728,27,0.142732846657993,1
725,729,27,0.151417555036451,1
725,730,27,0.0894117792595403,1
725,731,27,0.0410657864891666,1
726,727,27,0.056632541086643,1
726,728,27,0.0874615537900476,1
726,729,27,0.0908302253258899,1
726,730,27,0.0583619555061193,1
770,752,27,0.0410264416798872,1
770,753,27,0.0469773021811979,1
770,754,27,0.0431943314797316,1
771,752,27,0.0588720160554937,1
771,753,27,0.0756219237300899,1
771,754,27,0.071698937520378,1
771,755,27,0.0523147280667584,1
772,752,27,0.0675960259893525,1
772,753,27,0.0931830633036949,1
772,754,27,0.0935409783352568,1
772,755,27,0.0699153584314829,1
772,756,27,0.0439670620200928,1
773,752,27,0.0521511797452122,1
773,753,27,0.0731035910062037,1
773,754,27,0.0783032316616315,1
773,755,27,0.0651209201103458,1
773,756,27,0.0456383513368952,1
774,753,27,0.0430133410316586,1
774,754,27,0.0483801768512682,1
774,755,27,0.0466498757272815,1
723,727,28,0.0578692289485752,1
723,728,28,0.0726427912177671,1
723,729,28,0.0761136446349576,1
724,727,28,0.0774814998836038,1
724,728,28,0.146048451091585,1
724,729,28,0.157804487624503,1
724,730,28,0.0912944908313456,1
725,727,28,0.0867885504734267,1
725,728,28,0.163491734659601,1
725,729,28,0.173494583360043,1
725,730,28,0.0992659643793929,1
726,727,28,0.0584247222906354,1
726,728,28,0.0937144047613177,1
726,729,28,0.0972227484777446,1
726,730,28,0.0600363455853405,1
727,726,28,0.0410283637741154,1
731,716,28,0.0459440373101036,1
732,715,28,0.0452391964354998,1
732,716,28,0.0533569627109178,1
732,717,28,0.0422263772618859,1
770,753,28,0.0413337172331324,1
771,752,28,0.0490585977161779,1
771,753,28,0.0622611034220133,1
771,754,28,0.0620089711571892,1
771,755,28,0.0486529358094276,1
772,752,28,0.0555489070739729,1
772,753,28,0.0766788971333665,1
772,754,28,0.0813134258654906,1
772,755,28,0.0645424751789781,1
772,756,28,0.043498162942897,1
773,752,28,0.0454384481304246,1
773,753,28,0.0636319161546056,1
773,754,28,0.0712846951254695,1
773,755,28,0.0620465587776523,1
773,756,28,0.0469855312315928,1
774,754,28,0.0452374122130094,1
774,755,28,0.0445949920918934,1
774,756,28,0.0413651736163106,1
723,727,29,0.0576697528741554,1
723,728,29,0.0668729725285101,1
723,729,29,0.0689520999628276,1
724,727,29,0.070972434562721,1
724,728,29,0.130441759647367,1
724,729,29,0.141407342363186,1
724,730,29,0.0865054322113537,1
725,727,29,0.0805885611484839,1
725,728,29,0.147884610676597,1
725,729,29,0.158012884811375,1
725,730,29,0.0954979027491906,1
726,727,29,0.0545271044806952,1
726,728,29,0.0848914786139416,1
726,729,29,0.0893204486949743,1
727,725,29,0.0415427172709363,1
731,715,29,0.0439833795457772,1
731,716,29,0.0500211316823674,1
732,715,29,0.0490077203415292,1
732,716,29,0.0557470693118317,1
732,717,29,0.041073847930782,1
771,752,29,0.0422960024895202,1
771,753,29,0.0499787753217937,1
771,754,29,0.0520736579813744,1
771,755,29,0.044776712449167,1
772,752,29,0.0453183699568248,1
772,753,29,0.0588364505538529,1
772,754,29,0.0653155301234284,1
772,755,29,0.0562642072770844,1
772,756,29,0.0423844458576928,1
773,753,29,0.0513278043197995,1
773,754,29,0.0586510157697586,1
773,755,29,0.0540352646276615,1
773,756,29,0.0452079455082448,1
774,755,29,0.0412375611577402,1
723,727,30,0.0516957109973073,1
723,728,30,0.0536502780748598,1
724,727,30,0.0590779531780225,1
724,728,30,0.095055794043024,1
724,729,30,0.101180153961316,1
725,727,30,0.0662751444528155,1
725,728,30,0.107857341701402,1
725,729,30,0.115124058179235,1
725,730,30,0.0752356665946057,1
726,727,30,0.047327945154428,1
726,728,30,0.0657734427154716,1
726,729,30,0.0699379748032316,1
729,718,30,0.0415770338168338,1
731,715,30,0.0443085919417851,1
731,716,30,0.0480174768593912,1
732,715,30,0.0480997078892566,1
732,716,30,0.0507543065507913,1
771,754,30,0.0433680904199839,1
772,753,30,0.045447380056346,1
772,754,30,0.0512332729682204,1
772,755,30,0.0477878852720284,1
773,754,30,0.0468579485100639,1
773,755,30,0.0459350026562207,1
773,756,30,0.0420545755596381,1
723,727,31,0.04567753394413,1
724,727,31,0.0488474647214878,1
724,728,31,0.0602186606834442,1
725,727,31,0.0505366476271744,1
725,728,31,0.0652193821581384,1
725,729,31,0.067321115150735,1
731,716,31,0.0427125130096853,1
732,715,31,0.0418487195381316,1
732,716,31,0.0427444073383838,1
772,754,31,0.0413192082602451,1
724,727,32,0.0432765489927599,1
734,715,32,0.0414406462276519,1
724,721,33,0.0425981173143805,1
725,720,33,0.0498603516090486,1
725,721,33,0.0533730531537398,1
726,720,33,0.0485112036628768,1
726,721,33,0.0507767336868213,1
733,714,33,0.0446174841087413,1
733,715,33,0.047671564779128,1
734,714,33,0.0486678421773241,1
734,715,33,0.0541758938003091,1
734,716,33,0.0420251683289565,1
724,720,34,0.0487262727605153,1
724,721,34,0.0510702545066865,1
725,719,34,0.0469116427935535,1
725,720,34,0.0801716370131051,1
725,721,34,0.0862061207784972,1
725,722,34,0.0498726735577016,1
726,719,34,0.0473396237016375,1
726,720,34,0.0806243969868656,1
726,721,34,0.0859571730804815,1
726,722,34,0.0504322327643459,1
727,720,34,0.0499824789351449,1
727,721,34,0.0524864784050253,1
731,718,34,0.0414905017294198,1
732,717,34,0.0416891992340257,1
733,714,34,0.0466156565026108,1
733,715,34,0.0511840662746308,1
733,716,34,0.0439033652771877,1
733,717,34,0.0423745055757277,1
734,714,34,0.0530678970405437,1
734,715,34,0.0591749283737398,1
734,716,34,0.0456659851585562,1
764,731,34,0.0452049285502156,1
724,720,35,0.0526192191515717,1
724,721,35,0.0542506148755106,1
725,719,35,0.0540574484606247,1
725,720,35,0.100006957386365,1
725,721,35,0.105049764884892,1
725,722,35,0.0553948908259129,1
726,719,35,0.0560970742903531,1
726,720,35,0.104651277715247,1
726,721,35,0.109016372631126,1
726,722,35,0.0572583382015574,1
727,720,35,0.0585349439866598,1
727,721,35,0.0610691400705056,1
730,719,35,0.0413400295960339,1
731,717,35,0.0445277106838032,1
731,718,35,0.0527578478323362,1
731,719,35,0.0475626515129298,1
732,717,35,0.0432785197476015,1
732,718,35,0.0475748328864775,1
732,719,35,0.0435585805011342,1
733,714,35,0.0468380571326641,1
733,715,35,0.0500360758974077,1
733,716,35,0.044881500376698,1
733,717,35,0.0425975117600808,1
734,714,35,0.0520458187037903,1
734,715,35,0.0562742421769089,1
734,716,35,0.0475560607031852,1
735,715,35,0.0425464586665504,1
756,722,35,0.0441209295829452,1
756,723,35,0.0481200588391161,1
757,723,35,0.0438077633921145,1
763,738,35,0.0466530278536811,1
763,739,35,0.0470728067450444,1
764,738,35,0.0568985686599525,1
764,739,35,0.0575391207541885,1
765,738,35,0.0477123045259907,1
765,739,35,0.0475426952547121,1
724,720,36,0.0504765733965982,1
724,721,36,0.0507866226048057,1
725,719,36,0.0533797899453245,1
725,720,36,0.0983437700616896,1
725,721,36,0.10045211549097,1
725,722,36,0.0538677261358187,1
726,719,36,0.0565662707379639,1
726,720,36,0.106145688405807,1
726,721,36,0.107382111337733,1
726,722,36,0.056685532494606,1
727,720,36,0.0582237269237314,1
727,721,36,0.0593447160672674,1
730,719,36,0.0483417620003777,1
731,718,36,0.0660254235917208,1
731,719,36,0.0605891031195822,1
731,720,36,0.0423175483277748,1
732,717,36,0.0476430172192825,1
732,718,36,0.0572518122726306,1
732,719,36,0.0531345026067815,1
733,714,36,0.0475365477972227,1
733,715,36,0.0496243854813339,1
733,716,36,0.0460433806556717,1
733,717,36,0.0442171343189508,1
733,718,36,0.0431315701019503,1
734,712,36,0.0412204055881589,1
734,713,36,0.0469235376101557,1
734,714,36,0.053287307746242,1
734,715,36,0.0546596613982578,1
734,716,36,0.0508288221700696,1
734,717,36,0.0439025569703323,1
735,712,36,0.0412998251159182,1
735,713,36,0.0446108770787922,1
735,714,36,0.0463597287099436,1
735,715,36,0.0469722360706723,1
735,716,36,0.0477218420062118,1
735,717,36,0.0431557517234292,1
756,722,36,0.0520767668538954,1
756,723,36,0.0591836494370032,1
757,722,36,0.0457577807023167,1
757,723,36,0.0524652137169814,1
763,737,36,0.0514235197463039,1
763,738,36,0.076633156156796,1
763,739,36,0.0681146778403546,1
764,737,36,0.0612485247183372,1
764,738,36,0.0914024957660941,1
764,739,36,0.0807827548429854,1
765,737,36,0.0496083761395342,1
765,738,36,0.0662121992460503,1
765,739,36,0.058636287824111,1
724,720,37,0.0442387180043491,1
724,721,37,0.0437486001963553,1
725,719,37,0.0453742377477117,1
725,720,37,0.0756488276425503,1
725,721,37,0.0760807446535827,1
725,722,37,0.0474605993932173,1
726,719,37,0.0488672912180699,1
726,720,37,0.0829933956950453,1
726,721,37,0.0822061751053686,1
726,722,37,0.0497138777560614,1
727,720,37,0.0517321361697843,1
727,721,37,0.0509321232455254,1
731,718,37,0.0638716237428152,1
731,719,37,0.0623928871764967,1
731,720,37,0.045784089873947,1
732,717,37,0.0474577932978461,1
732,718,37,0.0580898399494033,1
732,719,37,0.0575529349616515,1
732,720,37,0.0439136542935487,1
733,713,37,0.0434312221591004,1
733,714,37,0.0468832628424875,1
733,715,37,0.0480041925119404,1
733,716,37,0.044387830343928,1
733,717,37,0.0434410245693276,1
733,718,37,0.043369344782462,1
734,712,37,0.0476475372495914,1
734,713,37,0.0544679710219776,1
734,714,37,0.0538894503963223,1
734,715,37,0.0515003061942063,1
734,716,37,0.0494483746360294,1
734,717,37,0.0451859157672239,1
735,712,37,0.0479480543843126,1
735,713,37,0.0546913773047072,1
735,714,37,0.0505699477069259,1
735,715,37,0.0472377608176436,1
735,716,37,0.0493229167612845,1
735,717,37,0.0469475597329575,1
756,721,37,0.0429743395500403,1
756,722,37,0.0530659506160088,1
756,723,37,0.0543955315888698,1
757,722,37,0.0460602929221862,1
757,723,37,0.0489082202006513,1
760,748,37,0.0418486330303745,1
762,738,37,0.0453737943954565,1
763,737,37,0.0655013595991646,1
763,738,37,0.0943375201357618,1
763,739,37,0.0764677641386764,1
764,736,37,0.0449280604735936,1
764,737,37,0.0790063991518087,1
764,738,37,0.111842581055822,1
764,739,37,0.0900954825043684,1
764,740,37,0.0439459973812372,1
765,736,37,0.0420115947211929,1
765,737,37,0.0597456903349295,1
765,738,37,0.0769693144874454,1
765,739,37,0.0633290146498291,1
766,737,37,0.0412954781011236,1
766,738,37,0.044018015089029,1
725,720,38,0.0498735602622119,1
725,721,38,0.0506726918886953,1
726,720,38,0.054976923190714,1
726,721,38,0.0565093702607266,1
726,722,38,0.0439059064425528,1
727,721,38,0.0443685661477672,1
731,719,38,0.056860899938467,1
731,720,38,0.0454165400409372,1
732,718,38,0.0556773819067469,1
732,719,38,0.05876446528647,1
732,720,38,0.0479581109110763,1
733,711,38,0.0480975830424726,1
733,712,38,0.0458164870289836,1
733,713,38,0.044706687123156,1
733,714,38,0.0451526832716576,1
733,715,38,0.0445515084271099,1
733,716,38,0.0429160738722611,1
733,717,38,0.0433683256129486,1
733,718,38,0.0448652720621382,1
733,719,38,0.0448898916291374,1
734,711,38,0.0491284797637162,1
734,712,38,0.054291214047268,1
734,713,38,0.0598833295832221,1
734,714,38,0.0545297754076959,1
734,715,38,0.0484780874121092,1
734,716,38,0.0483870055573448,1
734,717,38,0.0470447944519461,1
735,711,38,0.0421803253980633,1
735,712,38,0.0534888978539761,1
735,713,38,0.0622678888742114,1
735,714,38,0.0546457931234465,1
735,715,38,0.04799089735102,1
735,716,38,0.0516426871489353,1
735,717,38,0.0518445043395319,1
735,718,38,0.0438317125239962,1
736,713,38,0.0450766618767322,1
736,714,38,0.0420436566586708,1
736,715,38,0.0415182869396557,1
736,716,38,0.0452904252479118,1
736,717,38,0.0453550654660428,1
756,721,38,0.0479993967381558,1
756,722,38,0.0490536829942273,1
756,723,38,0.0439212318323978,1
757,722,38,0.0428989967003346,1
757,723,38,0.042149052843869,1
762,738,38,0.044121026904172,1
763,736,38,0.04234587691486,1
763,737,38,0.0684191040443501,1
763,738,38,0.0910495441170962,1
763,739,38,0.0697093402079318,1
764,736,38,0.0504585905965895,1
764,737,38,0.084595757253005,1
764,738,38,0.11204180842044,1
764,739,38,0.086448034314513,1
764,740,38,0.0441954046517124,1
765,737,38,0.0631562856925599,1
765,738,38,0.0779741723737997,1
765,739,38,0.0634966342426942,1
766,738,38,0.0442622940715282,1
726,722,39,0.0417391385401833,1
731,720,39,0.0447157974713264,1
732,718,39,0.0496709699085362,1
732,719,39,0.0547982251982044,1
732,720,39,0.0509311878804016,1
732,725,39,0.0417051842455187,1
732,726,39,0.0487135182730768,1
733,710,39,0.0445322712646232,1
733,711,39,0.0539373054062071,1
733,712,39,0.0489127618578994,1
733,713,39,0.0448865610804888,1
733,714,39,0.0427653422156038,1
733,717,39,0.043450597193325,1
733,718,39,0.0458327775209939,1
733,719,39,0.0487420442059829,1
733,720,39,0.0454447902303676,1
734,710,39,0.0463230169805211,1
734,711,39,0.05573769944039,1
734,712,39,0.0568268915764542,1
734,713,39,0.0589637034645578,1
734,714,39,0.0530123752806852,1
734,715,39,0.0472573277909544,1
734,716,39,0.0485874061834188,1
734,717,39,0.0493406021908782,1
734,718,39,0.044893419523607,1
735,710,39,0.0425485537762928,1
735,711,39,0.0503713204898727,1
735,712,39,0.0567973762110762,1
735,713,39,0.0635598768198745,1
735,714,39,0.0589781178195858,1
735,715,39,0.0540716573597296,1
735,716,39,0.0570885018474164,1
735,717,39,0.0572018216024922,1
735,718,39,0.047509265413325,1
736,712,39,0.0437999101097896,1
736,713,39,0.0501120621485568,1
736,714,39,0.052738832345977,1
736,715,39,0.0540760962890162,1
736,716,39,0.0565211190954887,1
736,717,39,0.0552445673777345,1
736,718,39,0.045381136741341,1
737,714,39,0.0452377285069964,1
737,715,39,0.0469567511821501,1
737,716,39,0.045381704448497,1
737,717,39,0.0425208226334051,1
756,721,39,0.0494240281091385,1
756,722,39,0.0430639399594642,1
763,736,39,0.0414331633066621,1
763,737,39,0.0604704090700961,1
763,738,39,0.0723377432392674,1
763,739,39,0.0570905888470566,1
764,736,39,0.0484213112897727,1
764,737,39,0.0746700734719032,1
764,738,39,0.0919807676819477,1
764,739,39,0.0744259161409374,1
764,740,39,0.043912224212189,1
765,737,39,0.0584832393815837,1
765,738,39,0.0693999560281071,1
765,739,39,0.0607410918420849,1
765,740,39,0.0423343443494906,1
766,739,39,0.0417242483924912,1
726,722,40,0.0431485742829567,1
727,722,40,0.0423375153994621,1
731,721,40,0.0497516870526522,1
731,726,40,0.0444777497507063,1
732,719,40,0.0533250143148711,1
732,720,40,0.0577563201053457,1
732,721,40,0.048300065261452,1
732,725,40,0.0449725281641142,1
732,726,40,0.0508484053635848,1
732,727,40,0.042343289792249,1
733,710,40,0.0426834761403388,1
733,711,40,0.0519685132093452,1
733,712,40,0.047580320722319,1
733,713,40,0.0446898559576638,1
733,714,40,0.0437053787582106,1
733,717,40,0.0439357975760007,1
733,718,40,0.0475326549481529,1
733,719,40,0.0512757320567557,1
733,720,40,0.0500767723903919,1
733,721,40,0.0413476233550874,1
734,710,40,0.0467456290009297,1
734,711,40,0.0569918780894623,1
734,712,40,0.0557846623390296,1
734,713,40,0.0590233992236967,1
734,714,40,0.0623770238165371,1
734,715,40,0.0609121284913558,1
734,716,40,0.0568381916522264,1
734,717,40,0.0541742123057804,1
734,718,40,0.0502642076663693,1
734,719,40,0.0468211556796192,1
734,720,40,0.0412812610919165,1
735,710,40,0.0471366278428504,1
735,711,40,0.0564621208051415,1
735,712,40,0.0587914340797482,1
735,713,40,0.0697545837648989,1
735,714,40,0.0839297935051187,1
735,715,40,0.08628573494871,1
735,716,40,0.0762489373603386,1
735,717,40,0.0648508537061264,1
735,718,40,0.0505852433597294,1
736,711,40,0.0458875261177732,1
736,712,40,0.0497795101100318,1
736,713,40,0.0646269554105282,1
736,714,40,0.0852327625291996,1
736,715,40,0.0904317760033883,1
736,716,40,0.0786796972003581,1
736,717,40,0.0652443180191246,1
736,718,40,0.0483042662944065,1
737,712,40,0.0430618313328847,1
737,713,40,0.0575675601793375,1
737,714,40,0.0712204523023477,1
737,715,40,0.0687499745883463,1
737,716,40,0.0580157190217668,1
737,717,40,0.0520191148405182,1
737,718,40,0.0413545520857583,1
738,713,40,0.0516242123360581,1
738,714,40,0.0578290028415203,1
738,715,40,0.049882081276287,1
738,716,40,0.0409949528563002,1
738,735,40,0.0454413569537574,1
739,713,40,0.0415823026799152,1
739,714,40,0.0462224138657401,1
739,735,40,0.0483065965971136,1
756,721,40,0.0476224770337044,1
763,737,40,0.0481066447300296,1
763,738,40,0.0505210113500773,1
763,739,40,0.0421815527268672,1
764,736,40,0.0431795954239819,1
764,737,40,0.0581908053154172,1
764,738,40,0.0656199671408935,1
764,739,40,0.0571198609093678,1
765,737,40,0.0494720831682117,1
765,738,40,0.0555146770358325,1
765,739,40,0.0524579632855888,1
765,740,40,0.041277027618553,1
726,724,41,0.0443532813084333,1
726,725,41,0.0494610047685671,1
726,726,41,0.0415644739718488,1
727,724,41,0.0543816254669148,1
727,725,41,0.0639194300920866,1
727,726,41,0.0504228737063738,1
728,724,41,0.0500993292880576,1
728,725,41,0.0593871913760071,1
728,726,41,0.0474575716217185,1
729,725,41,0.0417297984057831,1
731,726,41,0.0437466970256989,1
732,720,41,0.0571989722532425,1
732,721,41,0.0467928676430451,1
732,725,41,0.0427562129438616,1
732,726,41,0.0462033226850935,1
733,711,41,0.0447192875186522,1
733,712,41,0.0427852984738215,1
733,713,41,0.0428007995825482,1
733,714,41,0.0459050114981785,1
733,715,41,0.0460809953098089,1
733,716,41,0.0453480204905734,1
733,717,41,0.0474563659198539,1
733,718,41,0.0506670526642789,1
733,719,41,0.0511211913554182,1
733,720,41,0.0485039802651584,1
734,710,41,0.0445768173527986,1
734,711,41,0.0535617373854605,1
734,712,41,0.0513123843120951,1
734,713,41,0.0573138004873328,1
734,714,41,0.0735811732995192,1
734,715,41,0.0763642197601538,1
734,716,41,0.0645156253338659,1
734,717,41,0.0574960452978838,1
734,718,41,0.0544472794478244,1
734,719,41,0.0506280592927628,1
734,720,41,0.0438386736950759,1
735,710,41,0.0478483650077161,1
735,711,41,0.0579425388659888,1
735,712,41,0.057167975442524,1
735,713,41,0.0748026412029354,1
735,714,41,0.111825776924004,1
735,715,41,0.119617736062584,1
735,716,41,0.0902803712082461,1
735,717,41,0.0651530253017023,1
735,718,41,0.0507760145910904,1
735,719,41,0.0425711241907956,1
736,711,41,0.0491676245238072,1
736,712,41,0.0524410185786654,1
736,713,41,0.0768128435817776,1
736,714,41,0.117459378336226,1
736,715,41,0.12548924462032,1
736,716,41,0.0944924230883321,1
736,717,41,0.0660426007882414,1
736,718,41,0.0466030371835427,1
737,712,41,0.046728332856243,1
737,713,41,0.0695071337324282,1
737,714,41,0.0914342008590739,1
737,715,41,0.0882540783865819,1
737,716,41,0.07016620389342,1
737,717,41,0.0572417935930106,1
737,718,41,0.0435233610305219,1
738,712,41,0.0433588016495645,1
738,713,41,0.0647603936258662,1
738,714,41,0.0734281843310749,1
738,715,41,0.0618213574589627,1
738,716,41,0.0504631106268984,1
738,717,41,0.0471742046498438,1
738,734,41,0.0496306789206635,1
738,735,41,0.0583603605193476,1
739,713,41,0.048422079046117,1
739,714,41,0.0541734012955575,1
739,715,41,0.0450830391204514,1
739,734,41,0.0530581811380736,1
739,735,41,0.0632151055606581,1
739,736,41,0.0440805737142547,1
764,737,41,0.0445453825965597,1
764,738,41,0.0464654465958635,1
764,739,41,0.0440966938941181,1
765,738,41,0.0440091561540278,1
765,739,41,0.0443752218383296,1
726,724,42,0.0536672173750484,1
726,725,42,0.0641401654478156,1
726,726,42,0.0483206757345828,1
727,723,42,0.0435452772301116,1
727,724,42,0.0771985221966361,1
727,725,42,0.0968377024508599,1
727,726,42,0.0679445062686549,1
728,724,42,0.071222447387496,1
728,725,42,0.0893530134587903,1
728,726,42,0.0635503068992445,1
729,724,42,0.0437309309869661,1
729,725,42,0.0528327527365215,1
729,726,42,0.0431701336380483,1
732,715,42,0.042004038809283,1
732,716,42,0.0439560079507549,1
732,717,42,0.0481708929598863,1
732,721,42,0.0425006068519161,1
733,713,42,0.0433991710350921,1
733,714,42,0.0502552811471828,1
733,715,42,0.0522405909189174,1
733,716,42,0.0551622714670513,1
733,717,42,0.0602400605398586,1
733,718,42,0.0587504185894097,1
733,719,42,0.0525608967030769,1
733,720,42,0.0481019570909414,1
734,711,42,0.0480149789479048,1
734,712,42,0.0471724150206187,1
734,713,42,0.0592674159795572,1
734,714,42,0.0855973170311195,1
734,715,42,0.0894929884165248,1
734,716,42,0.0744094310064736,1
734,717,42,0.0674258976715313,1
734,718,42,0.061776757303439,1
734,719,42,0.054744736370638,1
734,720,42,0.0492171610282208,1
735,710,42,0.0442310755846821,1
735,711,42,0.0537481453818223,1
735,712,42,0.0551075931578247,1
735,713,42,0.083994322885186,1
735,714,42,0.137315049659345,1
735,715,42,0.144157423961628,1
735,716,42,0.0993117161694331,1
735,717,42,0.0668882195207003,1
735,718,42,0.0529259432178654,1
735,719,42,0.0457933137635485,1
735,720,42,0.0415573884458682,1
736,711,42,0.0469760099715761,1
736,712,42,0.0540953550784422,1
736,713,42,0.0888510684183795,1
736,714,42,0.142108790511691,1
736,715,42,0.148962216179944,1
736,716,42,0.104012872094734,1
736,717,42,0.0658635135108248,1
736,718,42,0.0458153299877323,1
737,712,42,0.0511989726425274,1
737,713,42,0.0814685829345975,1
737,714,42,0.109453874799226,1
737,715,42,0.108664729411954,1
737,716,42,0.0876945516203465,1
737,717,42,0.0656430863389805,1
737,718,42,0.0473027497701705,1
738,712,42,0.0491713497640977,1
738,713,42,0.076565328668489,1
738,714,42,0.0882724558782324,1
738,715,42,0.0780685577435386,1
738,716,42,0.0674942279861764,1
738,717,42,0.0568453772028011,1
738,718,42,0.0448834305810285,1
738,734,42,0.0539804998106778,1
738,735,42,0.0610349803199178,1
738,736,42,0.0423327466593516,1
739,713,42,0.0547025530255785,1
739,714,42,0.0609427197969628,1
739,715,42,0.0515656465844964,1
739,716,42,0.0432655516941376,1
739,734,42,0.0564740426554179,1
739,735,42,0.0654221130869194,1
739,736,42,0.0455993038980309,1
740,735,42,0.0421489311923356,1
726,723,43,0.0419507824713138,1
726,724,43,0.0637103029960145,1
726,725,43,0.0752137747253227,1
726,726,43,0.0530784563936456,1
727,723,43,0.0520650991201556,1
727,724,43,0.0985258688904005,1
727,725,43,0.120402437113835,1
727,726,43,0.0790689442601973,1
728,723,43,0.0477688860058737,1
728,724,43,0.0889322343214855,1
728,725,43,0.108560217227899,1
728,726,43,0.0724719870580935,1
729,724,43,0.0507834758851409,1
729,725,43,0.0600325446507626,1
729,726,43,0.0462753890534987,1
731,717,43,0.0414324604311356,1
732,714,43,0.0432738645489222,1
732,715,43,0.045595351574878,1
732,716,43,0.0502914522031233,1
732,717,43,0.0561969204622594,1
732,718,43,0.0540799729178816,1
733,713,43,0.0473479662934636,1
733,714,43,0.0558520248481421,1
733,715,43,0.0605279096948984,1
733,716,43,0.0686174555179276,1
733,717,43,0.075286289852718,1
733,718,43,0.064747871628025,1
733,719,43,0.0534658597569115,1
733,720,43,0.0481922982230355,1
734,711,43,0.0428614036731367,1
734,712,43,0.0477620735200015,1
734,713,43,0.0635101132325985,1
734,714,43,0.0898666370464106,1
734,715,43,0.0924190916737408,1
734,716,43,0.0824966140863868,1
734,717,43,0.079045208694341,1
734,718,43,0.0664818925855672,1
734,719,43,0.0563599929911415,1
734,720,43,0.0520814977468622,1
734,721,43,0.0420903735508761,1
735,711,43,0.046090862600854,1
735,712,43,0.0554598797784398,1
735,713,43,0.0888999885550237,1
735,714,43,0.138269976349644,1
735,715,43,0.137699771282141,1
735,716,43,0.0968483104645752,1
735,717,43,0.0699854621551487,1
735,718,43,0.0559671937065261,1
735,719,43,0.0487935920157493,1
735,720,43,0.0455814887068016,1
736,711,43,0.0424261669269253,1
736,712,43,0.0564855427803783,1
736,713,43,0.0928939219390333,1
736,714,43,0.140285607090245,1
736,715,43,0.140326395497721,1
736,716,43,0.10052180830279,1
736,717,43,0.0656506017003792,1
736,718,43,0.0481559919987245,1
736,719,43,0.0410672192738937,1
737,712,43,0.0553266578324945,1
737,713,43,0.0869408257528748,1
737,714,43,0.113741772355356,1
737,715,43,0.114220419775431,1
737,716,43,0.0962667512539516,1
737,717,43,0.0691837136690128,1
737,718,43,0.0502820390778031,1
737,719,43,0.0430002540300287,1
738,712,43,0.0526766170484124,1
738,713,43,0.080487325445729,1
738,714,43,0.0931651886383826,1
738,715,43,0.0876534388087813,1
738,716,43,0.0786490572341377,1
738,717,43,0.060768514801088,1
738,718,43,0.0483813230790498,1
738,719,43,0.0431366713562522,1
738,734,43,0.0518359346648434,1
738,735,43,0.0555216246900751,1
739,712,43,0.0430112161848747,1
739,713,43,0.0602867260680832,1
739,714,43,0.0652259783746179,1
739,715,43,0.0572179228587838,1
739,716,43,0.0497407600415826,1
739,734,43,0.0524858133766426,1
739,735,43,0.0578095764433149,1
739,736,43,0.0426881286356507,1
740,713,43,0.0416969146446127,1
740,714,43,0.0438338644044542,1
740,735,43,0.0411871595757556,1
726,723,44,0.043980678881735,1
726,724,44,0.0641122342557396,1
726,725,44,0.0713192387542295,1
726,726,44,0.0497306548542054,1
727,723,44,0.0563842151631316,1
727,724,44,0.100241901641199,1
727,725,44,0.115460367898459,1
727,726,44,0.0739266420275273,1
728,723,44,0.0510554400532819,1
728,724,44,0.087824059139471,1
728,725,44,0.101559566170519,1
728,726,44,0.0664116428800612,1
729,724,44,0.0505117928672105,1
729,725,44,0.0569068193372866,1
729,726,44,0.0435020584953342,1
731,717,44,0.042008493958774,1
732,714,44,0.0438042598279516,1
732,715,44,0.0503165610796237,1
732,716,44,0.0591754257933432,1
732,717,44,0.0620715324857822,1
732,718,44,0.053510043593854,1
733,713,44,0.0478299172285129,1
733,714,44,0.0583945040497309,1
733,715,44,0.0705813708399825,1
733,716,44,0.0846523008857443,1
733,717,44,0.0862471470823053,1
733,718,44,0.0652393221961517,1
733,719,44,0.0514317920505773,1
733,721,44,0.0414069298293193,1
733,722,44,0.0415843166886353,1
733,723,44,0.0431320675215536,1
733,724,44,0.0411901143563343,1
734,712,44,0.0468561859145129,1
734,713,44,0.0623451673349823,1
734,714,44,0.0843244797401861,1
734,715,44,0.0916356125445591,1
734,716,44,0.0922581764320516,1
734,717,44,0.0884397510670083,1
734,718,44,0.0675165740211842,1
734,719,44,0.055640983767944,1
734,720,44,0.0505951593113879,1
734,721,44,0.0421600555492261,1
734,723,44,0.0410649268183303,1
735,712,44,0.0540985504587204,1
735,713,44,0.0829699629063388,1
735,714,44,0.115448527149205,1
735,715,44,0.113015074755246,1
735,716,44,0.0912365630744926,1
735,717,44,0.0749253578631269,1
735,718,44,0.0591522687481125,1
735,719,44,0.0517211442778968,1
735,720,44,0.0469510200432418,1
735,723,44,0.0437099096019891,1
735,724,44,0.0414183812936664,1
736,712,44,0.0556447036014996,1
736,713,44,0.0862119708655715,1
736,714,44,0.11609313970129,1
736,715,44,0.113487839647837,1
736,716,44,0.0923494421157998,1
736,717,44,0.069761012372599,1
736,718,44,0.0533570005580615,1
736,719,44,0.0457424526091042,1
736,723,44,0.0450737800870735,1
736,724,44,0.0440898895183482,1
737,712,44,0.0541837714129407,1
737,713,44,0.0824757873438632,1
737,714,44,0.102844768663984,1
737,715,44,0.104195836001016,1
737,716,44,0.0930810598445957,1
737,717,44,0.0702703592329772,1
737,718,44,0.0526379426742506,1
737,719,44,0.0456296140534274,1
738,712,44,0.0508477024880583,1
738,713,44,0.0759620722310359,1
738,714,44,0.0880963098645574,1
738,715,44,0.0865806615196281,1
738,716,44,0.0789108080802051,1
738,717,44,0.0609094413441506,1
738,718,44,0.0494182212759427,1
738,719,44,0.0450445404651712,1
738,734,44,0.0443165695790109,1
738,735,44,0.0446213553308718,1
739,712,44,0.0447909321617415,1
739,713,44,0.061679625312412,1
739,714,44,0.0654467353572861,1
739,715,44,0.0591168330081074,1
739,716,44,0.0522649482592779,1
739,717,44,0.0435627490936799,1
739,734,44,0.0443917475233045,1
739,735,44,0.0456749711518257,1
740,713,44,0.0436912590702302,1
740,714,44,0.0448783725806051,1
740,715,44,0.0411223787825192,1
745,739,44,0.0459063902155574,1
745,740,44,0.0417789185916157,1
746,739,44,0.0455193761371985,1
746,740,44,0.0440049389008688,1
749,716,44,0.0442596312546298,1
750,716,44,0.043115847317096,1
726,723,45,0.0458039434042031,1
726,724,45,0.0580668288860128,1
726,725,45,0.0584068908792017,1
726,726,45,0.0428285523523752,1
727,723,45,0.0544596716840301,1
727,724,45,0.0822709964491161,1
727,725,45,0.0872656083134647,1
727,726,45,0.0583894325324705,1
728,723,45,0.0484467067232185,1
728,724,45,0.0708242467747962,1
728,725,45,0.0759911496508936,1
728,726,45,0.0523824852675127,1
729,724,45,0.0458504845775268,1
729,725,45,0.0483407996015799,1
731,716,45,0.0419365951991482,1
731,717,45,0.0421034416289341,1
732,714,45,0.0438991669476006,1
732,715,45,0.0536819993880441,1
732,716,45,0.0649198706760936,1
732,717,45,0.0627966405058558,1
732,718,45,0.0499835440619043,1
732,721,45,0.0420519262595767,1
732,722,45,0.0437622440916716,1
732,723,45,0.0452868270658896,1
732,724,45,0.0428781158904628,1
733,713,45,0.0466243126850563,1
733,714,45,0.0564304157121617,1
733,715,45,0.0738181342664406,1
733,716,45,0.0896770174495662,1
733,717,45,0.0839366870920132,1
733,718,45,0.0607338900713058,1
733,720,45,0.043886371909651,1
733,721,45,0.0436378026830727,1
733,722,45,0.046329629417205,1
733,723,45,0.0488745416494624,1
733,724,45,0.0438431234378321,1
734,712,45,0.0467470239385131,1
734,713,45,0.0586146825117735,1
734,714,45,0.073157025766422,1
734,715,45,0.0860656970617727,1
734,716,45,0.0928037916695971,1
734,717,45,0.0851760134405372,1
734,718,45,0.0640432875733251,1
734,720,45,0.0450885485832322,1
734,722,45,0.0414753817954979,1
734,723,45,0.0458738578921503,1
734,724,45,0.0412378152742767,1
735,712,45,0.0520257218704673,1
735,713,45,0.0707937527904158,1
735,714,45,0.0852464037211485,1
735,715,45,0.0868626876212677,1
735,716,45,0.0807018809035597,1
735,717,45,0.071743137577525,1
735,719,45,0.05087949949553,1
735,720,45,0.0441411156273928,1
735,722,45,0.0448663561124694,1
735,723,45,0.0578313223307577,1
735,724,45,0.0539501572148724,1
736,712,45,0.0527440390316079,1
736,713,45,0.072689418898848,1
736,714,45,0.0847260325284738,1
736,715,45,0.0841673978734836,1
736,716,45,0.0774789046508906,1
736,718,45,0.055691552958708,1
736,719,45,0.0477797481361255,1
736,722,45,0.0479950929772397,1
736,723,45,0.0685263628496935,1
736,724,45,0.0665604037818769,1
736,725,45,0.043168316975149,1
737,712,45,0.0498642606783229,1
737,713,45,0.0693309931254881,1
737,714,45,0.0805139536147137,1
737,715,45,0.0817918137622942,1
737,716,45,0.0757882457065984,1
737,717,45,0.064298982876395,1
737,718,45,0.0518072897837713,1
737,719,45,0.0452066857390319,1
737,723,45,0.05435515409324,1
737,724,45,0.0549362861718129,1
738,712,45,0.0471085074150557,1
738,713,45,0.0652012533762896,1
738,714,45,0.0740214545293169,1
738,715,45,0.0735720845782881,1
738,716,45,0.0668224898455032,1
738,717,45,0.0561405336248299,1
738,718,45,0.0474114575804455,1
738,719,45,0.0432773275625739,1
739,712,45,0.0443004845429237,1
739,713,45,0.0577135852733347,1
739,714,45,0.0605340409321834,1
739,715,45,0.0557422248774336,1
739,716,45,0.0493936422594546,1
739,717,45,0.0434895581244322,1
740,713,45,0.0441608853532592,1
740,714,45,0.0446036212406648,1
740,715,45,0.0417016428342121,1
744,738,45,0.0429290013752138,1
745,738,45,0.0428131945221212,1
745,739,45,0.0462659434877696,1
746,739,45,0.0448715655014677,1
746,740,45,0.0437398412859482,1
748,715,45,0.0443148583474406,1
749,716,45,0.0527676394290938,1
749,717,45,0.0420643563429261,1
726,723,46,0.0437405090176984,1
726,724,46,0.0478024402021617,1
726,725,46,0.0432826883401471,1
727,723,46,0.0457041350794405,1
727,724,46,0.0562030949534229,1
727,725,46,0.0547048292609374,1
728,724,46,0.0486201980300973,1
728,725,46,0.0484427057394523,1
731,716,46,0.0415622301768988,1
732,715,46,0.0508370566271992,1
732,716,46,0.0609105767584626,1
732,717,46,0.0561186904161603,1
732,718,46,0.0438285117369832,1
732,721,46,0.0438215748962102,1
732,722,46,0.0475684583461257,1
732,723,46,0.0481037953807799,1
732,724,46,0.0431605745308879,1
732,727,46,0.041716749251297,1
733,713,46,0.0420746102155107,1
733,714,46,0.0503573927409784,1
733,715,46,0.0675816224477941,1
733,716,46,0.0797653911789943,1
733,717,46,0.0713053650726834,1
733,718,46,0.0534619398741675,1
733,721,46,0.0444976519415758,1
733,722,46,0.0492172907898565,1
733,723,46,0.0507755712388352,1
733,724,46,0.0437955630949949,1
734,712,46,0.0418926357417006,1
734,713,46,0.0502803305496002,1
734,714,46,0.0622384654233253,1
734,715,46,0.0776405227681064,1
734,716,46,0.0823809153679906,1
734,717,46,0.072017286066533,1
734,722,46,0.0427812947866879,1
734,723,46,0.0481013947905202,1
734,724,46,0.0425148914453085,1
735,712,46,0.0453825965597422,1
735,713,46,0.0571082418362413,1
735,714,46,0.067285884866653,1
735,715,46,0.074235366585704,1
735,716,46,0.0714364621718447,1
735,722,46,0.0483745051864428,1
735,723,46,0.0660508082116969,1
735,724,46,0.0618633623817731,1
735,725,46,0.0428471082662747,1
736,712,46,0.0459814032544391,1
736,713,46,0.0578597293154979,1
736,714,46,0.0647788684387435,1
736,715,46,0.0668065075373776,1
736,719,46,0.0477620194526533,1
736,722,46,0.0553625207045503,1
736,723,46,0.0838703302355771,1
736,724,46,0.0824204494129886,1
736,725,46,0.0526215656744832,1
737,712,46,0.0451801467811718,1
737,713,46,0.0564897167796588,1
737,714,46,0.0629836270228433,1
737,715,46,0.0623291633999175,1
737,718,46,0.0502575736027462,1
737,719,46,0.0446074870560606,1
737,722,46,0.0459587003749333,1
737,723,46,0.0659916963799185,1
737,724,46,0.0666644509867378,1
737,725,46,0.0445733570425143,1
738,712,46,0.0457857173011275,1
738,713,46,0.0563841448755789,1
738,714,46,0.0622013481887914,1
738,715,46,0.0595150011803983,1
738,716,46,0.0538787018075017,1
738,717,46,0.0499821599377905,1
738,718,46,0.045230875470613,1
738,719,46,0.0416806755165832,1
739,712,46,0.0453266747015071,1
739,713,46,0.0532060066747655,1
739,714,46,0.0553740478631849,1
739,715,46,0.0509860337984077,1
739,716,46,0.0456156484573894,1
739,717,46,0.0420289260096558,1
739,720,46,0.0424513866414894,1
740,713,46,0.0439968342053748,1
740,714,46,0.0444418949887527,1
740,715,46,0.0421673384210275,1
744,738,46,0.0437770450282392,1
745,738,46,0.0425141101721271,1
748,716,46,0.0451552244370227,1
749,716,46,0.0584502204520428,1
749,717,46,0.0447029159256196,1
750,717,46,0.0432581633910072,1
752,719,46,0.0454861841921434,1
732,715,47,0.0460119242724936,1
732,716,47,0.051280506203601,1
732,717,47,0.0467750200114069,1
732,721,47,0.0430381903848877,1
732,722,47,0.0494748514164391,1
732,723,47,0.0488679832801267,1
732,724,47,0.0423059346613831,1
733,714,47,0.0453774115010506,1
733,715,47,0.0550454914016912,1
733,716,47,0.0602122915498271,1
733,717,47,0.0541792405691622,1
733,721,47,0.0435692101417888,1
733,722,47,0.0493008194360784,1
733,723,47,0.0490369058960832,1
733,724,47,0.0422402266131253,1
734,713,47,0.0440150738252874,1
734,714,47,0.0528291680713364,1
734,715,47,0.0634111375449981,1
734,716,47,0.0631702999492113,1
734,722,47,0.0448945116840405,1
734,723,47,0.0481029573368829,1
734,724,47,0.0435831324839483,1
735,713,47,0.0470544616938029,1
735,714,47,0.0574785382905392,1
735,715,47,0.065050486575856,1
735,722,47,0.0488145268929692,1
735,723,47,0.0628824886413152,1
735,724,47,0.0613968855217763,1
735,725,47,0.0460993782081942,1
736,713,47,0.0472262120320698,1
736,714,47,0.054786005977513,1
736,721,47,0.0410354087495849,1
736,722,47,0.0549518791950315,1
736,723,47,0.0795767664213566,1
736,724,47,0.0817742364673969,1
736,725,47,0.0570757689869172,1
737,713,47,0.0485233147488719,1
737,714,47,0.0528140400273122,1
737,719,47,0.0433232091142497,1
737,722,47,0.0484986546313615,1
737,723,47,0.0655007161977211,1
737,724,47,0.0676536888161993,1
737,725,47,0.0489868665653315,1
738,713,47,0.0510852203486661,1
738,714,47,0.0525612211071661,1
738,718,47,0.0427248106280316,1
738,720,47,0.0424999147898592,1
738,721,47,0.0444623621834108,1
738,722,47,0.0448666183391082,1
738,723,47,0.0469882940730854,1
738,724,47,0.0439762696894899,1
739,713,47,0.0493519184868548,1
739,714,47,0.0487720732111688,1
739,717,47,0.0411625805592675,1
739,719,47,0.0412441844078938,1
739,720,47,0.0492369118305154,1
739,721,47,0.0506925346054818,1
739,722,47,0.0431929041017394,1
740,720,47,0.0465948189466175,1
740,721,47,0.0468318772347657,1
731,722,48,0.0430305128214444,1
731,723,48,0.0448536232519702,1
732,716,48,0.0435051538510182,1
732,721,48,0.0419909301807138,1
732,722,48,0.0516962516707892,1
732,723,48,0.0514173074079966,1
732,724,48,0.0411858971031753,1
733,715,48,0.0461762998244671,1
733,716,48,0.0453827966089305,1
733,721,48,0.0431888463472575,1
733,722,48,0.049655993253087,1
733,723,48,0.0478589784281662,1
734,721,48,0.0421947154227846,1
734,722,48,0.0460445593238623,1
734,723,48,0.0463176697197849,1
734,724,48,0.0431126708603897,1
735,722,48,0.0463204217478079,1
735,723,48,0.0538040726467922,1
735,724,48,0.0559551529080837,1
735,725,48,0.0478320474820317,1
736,722,48,0.0501886269203316,1
736,723,48,0.0657584390263483,1
736,724,48,0.0708858186709173,1
736,725,48,0.0561602628001852,1
737,721,48,0.0431633941430961,1
737,722,48,0.0500351675659581,1
737,723,48,0.060636806740892,1
737,724,48,0.0625025790125088,1
737,725,48,0.0493335247749998,1
738,720,48,0.0460198883928822,1
738,721,48,0.050399630153386,1
738,722,48,0.0516210710231281,1
738,723,48,0.0503624534447692,1
738,724,48,0.0456589293696171,1
739,719,48,0.0432093432789572,1
739,720,48,0.0549376216353132,1
739,721,48,0.0582848230271884,1
739,722,48,0.050855006986799,1
740,720,48,0.0520696137437296,1
740,721,48,0.0532983591122124,1
740,722,48,0.0423204787780468,1
731,722,49,0.0434600076152779,1
731,723,49,0.0481116405530026,1
732,722,49,0.0482631264491671,1
732,723,49,0.0499845443078458,1
733,722,49,0.0461040712540173,1
733,723,49,0.0450050145302754,1
734,722,49,0.0433805826807837,1
734,723,49,0.0429945093742833,1
734,724,49,0.0424481588208024,1
734,725,49,0.0423260450115432,1
735,722,49,0.0410227732103124,1
735,723,49,0.0435985606017549,1
735,724,49,0.0473437220066305,1
735,725,49,0.0465694289199065,1
736,722,49,0.0436673342686552,1
736,723,49,0.0505142042709399,1
736,724,49,0.0544999951123117,1
736,725,49,0.050510014051455,1
736,726,49,0.0425561069848353,1
737,722,49,0.0489236023612119,1
737,723,49,0.0541208207994407,1
737,724,49,0.0535490910327184,1
737,725,49,0.0472550731825347,1
737,726,49,0.041220597527245,1
738,722,49,0.0524085349158716,1
738,723,49,0.0506921885744534,1
738,724,49,0.0458351240439055,1
739,721,49,0.0580415956546116,1
739,722,49,0.0517888690382422,1
739,723,49,0.0419688707026515,1
740,720,49,0.0497637656982383,1
740,721,49,0.0524339411627871,1
730,723,50,0.0410368631612512,1
731,722,50,0.0430408396849491,1
731,723,50,0.049919463440827,1
731,724,50,0.0423419651422183,1
732,722,50,0.0446857089920575,1
732,723,50,0.0486441877124901,1
732,724,50,0.0423308597088997,1
733,722,50,0.0432423703186003,1
733,723,50,0.0445493754702237,1
733,724,50,0.0422788388098367,1
733,725,50,0.0418333292674688,1
734,722,50,0.0410615151686594,1
734,723,50,0.0426862308717292,1
734,724,50,0.0441556273036475,1
734,725,50,0.0453923665295605,1
734,726,50,0.041503372461657,1
735,724,50,0.0438977693066498,1
735,725,50,0.0469739716325493,1
735,726,50,0.0449836822580462,1
736,723,50,0.0446367158644932,1
736,724,50,0.0461397557038241,1
736,725,50,0.0477356129597963,1
736,726,50,0.0473319082910505,1
736,727,50,0.0431499367801311,1
737,722,50,0.0472318566632211,1
737,723,50,0.0514433246159466,1
737,724,50,0.0492611826631188,1
737,725,50,0.0462777517966147,1
737,726,50,0.0444836728287007,1
738,722,50,0.0499026106483955,1
738,723,50,0.0498395464934643,1
738,724,50,0.0456828595779269,1
738,725,50,0.0413552306309781,1
739,723,50,0.0413180647358308,1
731,723,51,0.0489183902688462,1
731,724,51,0.0476435957399082,1
732,723,51,0.0503184858772194,1
732,724,51,0.0551490520004183,1
732,725,51,0.050231172516624,1
733,723,51,0.0478666505848746,1
733,724,51,0.0553636831525364,1
733,725,51,0.0536717914727055,1
733,726,51,0.0420661405654164,1
734,723,51,0.0429863911619523,1
734,724,51,0.0477769312272847,1
734,725,51,0.04938256385981,1
734,726,51,0.0450667351116041,1
735,724,51,0.041680145656571,1
735,725,51,0.0471766268670429,1
735,726,51,0.0512289259534258,1
735,727,51,0.046549618643529,1
736,723,51,0.0421830882395559,1
736,724,51,0.0420904681687355,1
736,725,51,0.0465824429306164,1
736,726,51,0.0519535203336916,1
736,727,51,0.0479187931354711,1
737,722,51,0.0440556432600033,1
737,723,51,0.0471851965417313,1
737,724,51,0.0454480450847287,1
737,725,51,0.044776158258848,1
737,726,51,0.0454579502229175,1
737,727,51,0.0413741812365194,1
738,723,51,0.0453220005792559,1
738,724,51,0.0433854649623254,1
731,723,52,0.0480357948769587,1
731,724,52,0.0534848914634751,1
731,725,52,0.045594875782214,1
732,723,52,0.0552084612026118,1
732,724,52,0.0723363645218885,1
732,725,52,0.0638377289222336,1
732,726,52,0.0413986980755571,1
733,723,52,0.0538602540282986,1
733,724,52,0.0725891672218302,1
733,725,52,0.0668097029176558,1
733,726,52,0.0448290685657888,1
734,723,52,0.0434419572310839,1
734,724,52,0.0521921952355507,1
734,725,52,0.0519247889448623,1
734,726,52,0.046033053792167,1
735,725,52,0.045957391945107,1
735,726,52,0.0540236509612699,1
735,727,52,0.0493245117480562,1
736,725,52,0.0456665312387729,1
736,726,52,0.0536298352105084,1
736,727,52,0.0489610926604483,1
737,723,52,0.0425623058063055,1
737,724,52,0.0417454941569633,1
737,725,52,0.0427570131406148,1
737,726,52,0.0441352249898072,1
731,723,53,0.0449651263441467,1
731,724,53,0.0542629206039591,1
731,725,53,0.0473201432360839,1
732,723,53,0.0553129355395234,1
732,724,53,0.078591567422805,1
732,725,53,0.0679730430150306,1
732,726,53,0.0430938716434233,1
733,723,53,0.0557969248135996,1
733,724,53,0.0806363891246946,1
733,725,53,0.0714530986948834,1
733,726,53,0.0464610347002511,1
734,723,53,0.0424583234822625,1
734,724,53,0.054143480425068,1
734,725,53,0.0520215640913913,1
734,726,53,0.0451471278516309,1
735,725,53,0.0441153984932252,1
735,726,53,0.0514273044606773,1
735,727,53,0.0470563378307851,1
736,725,53,0.0430226054717713,1
736,726,53,0.0519818840645531,1
736,727,53,0.0482632994646814,1
737,726,53,0.0446802860370338,1
737,727,53,0.0432743862988322,1
731,723,54,0.0435413654574699,1
731,724,54,0.0510007022699722,1
731,725,54,0.0455833053697009,1
732,723,54,0.0520225535238632,1
732,724,54,0.0718623290466145,1
732,725,54,0.0626954318367751,1
732,726,54,0.0418375870711389,1
733,723,54,0.0520994589199316,1
733,724,54,0.0740448440641448,1
733,725,54,0.0657662679783665,1
733,726,54,0.0445199141721939,1
734,724,54,0.0508461831955741,1
734,725,54,0.0489191418049861,1
734,726,54,0.0420147576610621,1
735,725,54,0.041519773791731,1
735,726,54,0.0461259144626869,1
735,727,54,0.0429172957943302,1
736,726,54,0.0529985556664873,1
736,727,54,0.0524144390702942,1
737,726,54,0.052548482839932,1
737,727,54,0.0555230142209237,1
737,728,54,0.0436474753316642,1
738,726,54,0.0448549397918987,1
738,727,54,0.0465021745454904,1
731,723,55,0.0414239799675717,1
731,724,55,0.0451584576644445,1
731,725,55,0.0410316159251092,1
732,723,55,0.04657829596501,1
732,724,55,0.0575156393048686,1
732,725,55,0.0514587716573251,1
733,723,55,0.04617068222699,1
733,724,55,0.0587655033795553,1
733,725,55,0.0533351357224527,1
734,724,55,0.0458443317133026,1
734,725,55,0.0443971110042452,1
736,726,55,0.0512340353178299,1
736,727,55,0.0542728689960264,1
736,728,55,0.0409849774305587,1
737,726,55,0.0582614983731784,1
737,727,55,0.064985021830665,1
737,728,55,0.0469699057679653,1
738,726,55,0.0489718358425341,1
738,727,55,0.053093757453184,1
732,724,56,0.0438599870437332,1
733,724,56,0.0434561336897799,1
733,725,56,0.0410096213278647,1
736,726,56,0.0450103536809094,1
736,727,56,0.0499792727413971,1
737,726,56,0.0564324973050671,1
737,727,56,0.0642045542527776,1
737,728,56,0.0457527145917911,1
738,726,56,0.0486921616705409,1
738,727,56,0.0535749838857675,1
736,727,57,0.042364211152632,1
737,726,57,0.0481158902465705,1
737,727,57,0.0531092747821151,1
737,728,57,0.0411868811289124,1
738,726,57,0.0448929302141058,1
738,727,57,0.0483117708423355,1
