x,y,z,signal,cytoplasm.p
328,33,13,0.0503789331724981,1
328,34,13,0.0489646448852245,1
329,32,13,0.0422740105956431,1
329,33,13,0.0481890704023484,1
329,34,13,0.0490596358092632,1
329,35,13,0.0493269015248463,1
330,32,13,0.043207791546064,1
330,33,13,0.0470928927648978,1
330,34,13,0.0494895793620866,1
330,35,13,0.0504929233626915,1
330,36,13,0.0505594262009677,1
331,32,13,0.0441164528065149,1
331,33,13,0.0473176182909233,1
331,34,13,0.0500390117544145,1
331,35,13,0.0511089775414617,1
331,36,13,0.0517820619591048,1
331,37,13,0.049783273197466,1
332,32,13,0.0450544483067274,1
332,33,13,0.0480921763076534,1
332,34,13,0.0510095368746668,1
332,35,13,0.053006103468295,1
332,36,13,0.0541390306823118,1
332,37,13,0.0512812036723927,1
332,38,13,0.0457307416214858,1
333,28,13,0.0418737824573861,1
333,32,13,0.0457287951969509,1
333,33,13,0.0479878046987034,1
333,34,13,0.0514006925118972,1
333,35,13,0.0552338296023835,1
333,36,13,0.0560039703167663,1
333,37,13,0.0521081962033995,1
333,38,13,0.0446471265323876,1
334,28,13,0.0427317934260506,1
334,29,13,0.0425781826831021,1
334,33,13,0.0493335085547954,1
334,34,13,0.0531786540033152,1
334,35,13,0.0572444104526631,1
334,36,13,0.0556123118531977,1
334,37,13,0.0510506604997017,1
335,27,13,0.0427981556892216,1
335,28,13,0.0452725478792321,1
335,29,13,0.0466803426779878,1
335,30,13,0.0463755001554112,1
335,32,13,0.0495139853630605,1
335,33,13,0.0523386420548637,1
335,34,13,0.0556058778387629,1
335,35,13,0.0580971660750834,1
335,36,13,0.0539421876877489,1
336,27,13,0.045260469233646,1
336,28,13,0.0485867735954449,1
336,29,13,0.050065164130735,1
336,30,13,0.0493591959519214,1
336,31,13,0.0492321809375486,1
336,32,13,0.0528502056765179,1
336,33,13,0.0561583758497333,1
336,34,13,0.0572752775017459,1
336,35,13,0.0574853021157981,1
336,36,13,0.0534521050235314,1
337,26,13,0.0426258214235941,1
337,27,13,0.0462441219060393,1
337,28,13,0.0485538033265174,1
337,29,13,0.049164850868845,1
337,30,13,0.0492406154438665,1
337,31,13,0.0500463919474427,1
337,32,13,0.0543896544681213,1
337,33,13,0.058300864809397,1
337,34,13,0.0579211065691655,1
337,35,13,0.0567539439102735,1
337,36,13,0.0541038220251691,1
338,26,13,0.0428487546170271,1
338,27,13,0.045777239540931,1
338,28,13,0.0467187845625523,1
338,29,13,0.0470038762828343,1
338,30,13,0.0483694607028565,1
338,31,13,0.0501787271888777,1
338,32,13,0.054198326343074,1
338,33,13,0.0577977627277349,1
338,34,13,0.0556764032877446,1
338,35,13,0.0531729607115505,1
338,36,13,0.0521727850575497,1
339,26,13,0.0436575345617954,1
339,27,13,0.0455321576583111,1
339,28,13,0.0454833456563633,1
339,29,13,0.0465105549844602,1
339,30,13,0.0487010935964622,1
339,31,13,0.0501122297573362,1
339,32,13,0.0528001771592358,1
339,33,13,0.0556983275974365,1
339,34,13,0.052600998455231,1
339,35,13,0.0497377322700838,1
340,27,13,0.0464381479917613,1
340,28,13,0.0452956968143605,1
340,29,13,0.0458856229471169,1
340,32,13,0.0507652551888002,1
340,33,13,0.0539538554214887,1
340,34,13,0.0519980339814581,1
341,28,13,0.0432032336686114,1
341,29,13,0.0446879717105793,1
341,33,13,0.0534621128896818,1
341,34,13,0.0539429500373584,1
342,33,13,0.053664330178655,1
343,33,13,0.0534825936011769,1
343,34,13,0.0579250859259924,1
344,32,13,0.0524109571330706,1
344,33,13,0.0553986485066123,1
344,34,13,0.0606895440323186,1
345,31,13,0.0515002791605322,1
345,32,13,0.0529160326729418,1
345,33,13,0.0548040590650743,1
345,34,13,0.0582575838971693,1
346,31,13,0.0521693463742047,1
346,32,13,0.0545552032815507,1
346,33,13,0.0557302002991957,1
347,30,13,0.0497038158225629,1
347,31,13,0.0512513422759862,1
347,32,13,0.0544903062435157,1
347,33,13,0.056882910755916,1
348,29,13,0.0471479062916832,1
348,30,13,0.0496142694804872,1
348,31,13,0.0513226625149864,1
348,32,13,0.0553742749460473,1
348,33,13,0.0585982352244535,1
348,34,13,0.0572111968806687,1
349,30,13,0.0479443021103481,1
349,31,13,0.0518773718804978,1
349,32,13,0.0566000682373188,1
349,33,13,0.0595163096102246,1
349,34,13,0.0595463602423498,1
349,35,13,0.0559032212201452,1
350,30,13,0.0461103646933469,1
350,31,13,0.0509616061704945,1
350,32,13,0.0548070381759597,1
350,33,13,0.057150598196815,1
350,34,13,0.0600721543900481,1
350,35,13,0.0581868962461429,1
351,31,13,0.0485844595129423,1
351,32,13,0.0517717188753957,1
351,33,13,0.0545338466790148,1
351,34,13,0.0603151492730277,1
351,35,13,0.0611938572225802,1
352,34,13,0.0582916084793865,1
352,35,13,0.061134469647326,1
353,35,13,0.0587807449650106,1
353,36,13,0.0619078273689263,1
354,36,13,0.0620298844074699,1
327,34,14,0.041422866180199,1
328,33,14,0.0455964653622508,1
328,34,14,0.0460744315337384,1
328,35,14,0.0461774244253095,1
329,33,14,0.0445704914730601,1
329,34,14,0.0467707162504908,1
329,35,14,0.0475769793602007,1
329,36,14,0.0484391535146761,1
330,33,14,0.0448144460514702,1
330,34,14,0.0481993269783005,1
330,35,14,0.0494054884154435,1
330,36,14,0.0493027928942874,1
330,37,14,0.0493895547679313,1
331,32,14,0.043059338828133,1
331,33,14,0.0460489604060051,1
331,34,14,0.0500693705704244,1
331,35,14,0.0514925421230059,1
331,36,14,0.0516651467253743,1
331,37,14,0.050473945723476,1
331,38,14,0.0470083368390602,1
332,28,14,0.0414558580760657,1
332,32,14,0.0445141911433877,1
332,33,14,0.047446282359416,1
332,34,14,0.0520052465657069,1
332,35,14,0.0541295310492344,1
332,36,14,0.0547284999459759,1
332,37,14,0.052143977974433,1
332,38,14,0.0464766547571437,1
333,27,14,0.0410568572666127,1
333,28,14,0.0443418001070447,1
333,29,14,0.0427204014357865,1
333,32,14,0.0454473259889978,1
333,33,14,0.0481467248552444,1
333,34,14,0.0532661133457507,1
333,35,14,0.0570913457899313,1
333,36,14,0.0577027393632873,1
333,37,14,0.0535081728636066,1
333,38,14,0.0455342014040728,1
334,27,14,0.0426115260167322,1
334,28,14,0.0448964256681664,1
334,29,14,0.0438170846029428,1
334,30,14,0.0435337635883141,1
334,32,14,0.0476697427094939,1
334,33,14,0.0502669488809227,1
334,34,14,0.0550256865320485,1
334,35,14,0.0593156927147579,1
334,36,14,0.0580936300705116,1
334,37,14,0.053203060004289,1
335,27,14,0.0438735065841486,1
335,28,14,0.0477616517946856,1
335,29,14,0.0500533774488292,1
335,30,14,0.0477494001335853,1
335,31,14,0.0474355229571258,1
335,32,14,0.0502733666751531,1
335,33,14,0.0542020515833645,1
335,34,14,0.0579050161263435,1
335,35,14,0.0606496747697618,1
335,36,14,0.0566422515823783,1
336,26,14,0.0416845602555508,1
336,27,14,0.0465538953707709,1
336,28,14,0.0520942630477704,1
336,29,14,0.0554440434521543,1
336,30,14,0.0518802590768913,1
336,31,14,0.0499364405881593,1
336,32,14,0.0532713524717905,1
336,33,14,0.0578864926528529,1
336,34,14,0.0590486054214238,1
336,35,14,0.0590611274192651,1
336,36,14,0.0548494864510253,1
337,26,14,0.0432306971781256,1
337,27,14,0.0488502437831849,1
337,28,14,0.0520249324871837,1
337,29,14,0.052577073653656,1
337,30,14,0.0509942087814543,1
337,31,14,0.0509341723980218,1
337,32,14,0.0555544814175715,1
337,33,14,0.0607612481494909,1
337,34,14,0.0606853051522203,1
337,35,14,0.0584907547429824,1
337,36,14,0.0549176761905652,1
338,26,14,0.0447823300466441,1
338,27,14,0.0491933443613422,1
338,28,14,0.0495773739220809,1
338,29,14,0.0481364520590879,1
338,30,14,0.0501809763905625,1
338,31,14,0.051935802463689,1
338,32,14,0.0559975092686574,1
338,33,14,0.0602375518149025,1
338,34,14,0.0589872065408169,1
338,35,14,0.055093259903819,1
338,36,14,0.0526605968931431,1
339,26,14,0.0451516776189813,1
339,27,14,0.0475708427161809,1
339,28,14,0.0472241196256948,1
339,29,14,0.0466885230677692,1
339,30,14,0.0503109326686769,1
339,31,14,0.0518358211234122,1
339,32,14,0.05390297804684,1
339,33,14,0.0568206197640639,1
339,34,14,0.0543495256822932,1
339,35,14,0.050376305499376,1
340,26,14,0.0446108013845047,1
340,27,14,0.0461171339253405,1
340,28,14,0.0462134386859403,1
340,29,14,0.0463637459139142,1
340,30,14,0.0484876843664133,1
340,31,14,0.0493421701439757,1
340,32,14,0.0514493477185352,1
340,33,14,0.054855087828298,1
340,34,14,0.0523587280747171,1
340,35,14,0.0502783733115957,1
341,27,14,0.0419550916389647,1
341,28,14,0.0435697400018011,1
341,29,14,0.0450692438365602,1
341,30,14,0.0461344733239057,1
341,32,14,0.0505593937605588,1
341,33,14,0.0545064399402162,1
341,34,14,0.0524998654804377,1
341,35,14,0.0546552332824408,1
342,28,14,0.0415597241553101,1
342,29,14,0.0430860345813029,1
342,32,14,0.0498743388320259,1
342,33,14,0.0532846260057716,1
342,34,14,0.0537503242959545,1
343,32,14,0.0501742936663259,1
343,33,14,0.0530583108997092,1
343,34,14,0.0565076671392585,1
343,35,14,0.0593504472061758,1
344,31,14,0.0501196423907734,1
344,32,14,0.0517444797453765,1
344,33,14,0.0553771729559104,1
344,34,14,0.0623070444477721,1
344,35,14,0.0625074667007853,1
345,30,14,0.0478617466763936,1
345,31,14,0.0508676479328063,1
345,32,14,0.0525279588745583,1
345,33,14,0.0549569831527008,1
345,34,14,0.0597771683450469,1
345,35,14,0.059684426622693,1
346,30,14,0.0484020092464681,1
346,31,14,0.0512877296013195,1
346,32,14,0.0538119989200372,1
346,33,14,0.0554444976178791,1
346,34,14,0.0561446968106407,1
347,29,14,0.046460466993095,1
347,30,14,0.04845952068474,1
347,31,14,0.0500225536536248,1
347,32,14,0.0531109292429697,1
347,33,14,0.0558890177277751,1
347,34,14,0.0550720384696536,1
348,28,14,0.0416528930097147,1
348,29,14,0.0456500893581877,1
348,30,14,0.0481472601219915,1
348,31,14,0.0497196521488484,1
348,32,14,0.0539212257768548,1
348,33,14,0.0576091163431579,1
348,34,14,0.0558193465428948,1
348,35,14,0.0531350378735286,1
349,29,14,0.0425588941566346,1
349,30,14,0.047231559292806,1
349,31,14,0.0511120593803086,1
349,32,14,0.0563143871829415,1
349,33,14,0.0598964084747497,1
349,34,14,0.058027824701027,1
349,35,14,0.0542398933203641,1
350,30,14,0.0454178376572938,1
350,31,14,0.0497696320055171,1
350,32,14,0.0531764264285696,1
350,33,14,0.0560756582137342,1
350,34,14,0.0580651095443403,1
350,35,14,0.0559164352800433,1
351,31,14,0.0465313222529008,1
351,32,14,0.0488408630982736,1
351,33,14,0.0521111969412241,1
351,34,14,0.0590102824850253,1
351,35,14,0.0598170267941341,1
351,36,14,0.0574584306437466,1
352,32,14,0.0466811699084151,1
352,33,14,0.0501579382934978,1
352,34,14,0.0582420179076248,1
352,35,14,0.0615439162684498,1
352,36,14,0.0604379578477112,1
353,34,14,0.0539044594921804,1
353,35,14,0.0592641394982567,1
353,36,14,0.060496220822123,1
353,37,14,0.0664920896874362,1
354,35,14,0.0571918786171597,1
354,36,14,0.0609971115492441,1
354,37,14,0.0629289108664729,1
355,36,14,0.0595611746957544,1
328,34,15,0.0416014235976033,1
329,34,15,0.0427380219845623,1
329,35,15,0.0436268648585334,1
330,34,15,0.0448091312311429,1
330,35,15,0.0464297026719737,1
330,36,15,0.0473982759609563,1
331,33,15,0.0438954822578213,1
331,34,15,0.0482168826462585,1
331,35,15,0.0500034300325693,1
331,36,15,0.0502709877118326,1
331,37,15,0.0509550586146284,1
332,28,15,0.0410253360026167,1
332,32,15,0.0442686010276949,1
332,33,15,0.0476139127657507,1
332,34,15,0.0524261824983215,1
332,35,15,0.053985306397932,1
332,36,15,0.0536633785933268,1
332,37,15,0.0523913360924117,1
333,28,15,0.044356130657683,1
333,29,15,0.0437366053551589,1
333,32,15,0.0468213449153379,1
333,33,15,0.0500779726855217,1
333,34,15,0.0548883392474361,1
333,35,15,0.0569321390764449,1
333,36,15,0.0569498461329778,1
333,37,15,0.0534617344182444,1
334,27,15,0.0428412662893025,1
334,28,15,0.0457322987611138,1
334,29,15,0.0453597747320703,1
334,30,15,0.0449623716127563,1
334,32,15,0.0495941618336945,1
334,33,15,0.0521426262907282,1
334,34,15,0.0557054698941327,1
334,35,15,0.0579769040724997,1
334,36,15,0.0579573100655149,1
335,27,15,0.0437811703669062,1
335,28,15,0.0483818529390621,1
335,29,15,0.050870708144714,1
335,30,15,0.0486701508530919,1
335,31,15,0.0487548095068911,1
335,32,15,0.0524687821619621,1
335,33,15,0.05584162229035,1
335,34,15,0.0580720517918481,1
335,35,15,0.0587004495462106,1
335,36,15,0.0569406546837852,1
336,27,15,0.0469509497556891,1
336,28,15,0.0537503945835071,1
336,29,15,0.0572215507778475,1
336,30,15,0.0527177623003866,1
336,31,15,0.0506018690692985,1
336,32,15,0.0541009077951015,1
336,33,15,0.0584937500740723,1
336,34,15,0.0588707779132201,1
336,35,15,0.0568887770631949,1
336,36,15,0.0543247898704953,1
337,26,15,0.0431974268354156,1
337,27,15,0.0496634978010161,1
337,28,15,0.0534420322765632,1
337,29,15,0.0540030513016087,1
337,30,15,0.0514886384604664,1
337,31,15,0.0517144237065165,1
337,32,15,0.055999553014419,1
337,33,15,0.0613578434896468,1
337,34,15,0.0607054236124826,1
337,35,15,0.0564464791213096,1
337,36,15,0.0535286319481625,1
338,26,15,0.0482540755750798,1
338,27,15,0.0534625292082628,1
338,28,15,0.051459853004289,1
338,29,15,0.0489086797731109,1
338,30,15,0.0507871146176742,1
338,31,15,0.053521138213703,1
338,32,15,0.056800820301156,1
338,33,15,0.061169580983242,1
338,34,15,0.0597552981027032,1
338,35,15,0.054350039322101,1
338,36,15,0.0515156451008884,1
339,26,15,0.0497155214034465,1
339,27,15,0.053156048445036,1
339,28,15,0.0495054048749024,1
339,29,15,0.0471090210548635,1
339,30,15,0.0504578552806541,1
339,31,15,0.0527970412530406,1
339,32,15,0.0539718598484367,1
339,33,15,0.0567868438916483,1
339,34,15,0.0548893070529688,1
339,35,15,0.0503786574290223,1
340,26,15,0.0450230541009997,1
340,27,15,0.0475772983575551,1
340,28,15,0.047241848309167,1
340,29,15,0.0470917411303813,1
340,30,15,0.0488803538893931,1
340,31,15,0.0502336704281105,1
340,32,15,0.0521418693478535,1
340,33,15,0.0554569979887812,1
340,34,15,0.053544765644863,1
341,28,15,0.0436650174827852,1
341,29,15,0.0457315039710953,1
341,30,15,0.0462408129843299,1
341,33,15,0.0551166278117076,1
341,34,15,0.0531258410176011,1
342,29,15,0.0427235076049402,1
342,33,15,0.0535396076198455,1
342,34,15,0.0531021162652144,1
343,32,15,0.0505388481682458,1
343,33,15,0.0531178985241517,1
343,34,15,0.0554375013030231,1
343,35,15,0.0589902559392549,1
344,31,15,0.0495986548303293,1
344,32,15,0.0522157037185446,1
344,33,15,0.0557304868561411,1
344,34,15,0.0609254074320717,1
344,35,15,0.0621216853579652,1
345,31,15,0.0501853936929097,1
345,32,15,0.0528462479466303,1
345,33,15,0.0554171611666332,1
345,34,15,0.0581235671612056,1
346,30,15,0.0472940233001723,1
346,31,15,0.050433784497239,1
346,32,15,0.0530776345699531,1
346,33,15,0.0549301927816716,1
346,34,15,0.0552506553611409,1
347,29,15,0.0448902701005748,1
347,30,15,0.0475551199313267,1
347,31,15,0.0497176408434956,1
347,32,15,0.0522200723602785,1
347,33,15,0.054184301272953,1
347,34,15,0.0533446191353256,1
348,29,15,0.0442061180967567,1
348,30,15,0.0471646239157442,1
348,31,15,0.0496012392495729,1
348,32,15,0.0538043754239421,1
348,33,15,0.0563215348863725,1
348,34,15,0.0538567018035224,1
349,29,15,0.0410255468652746,1
349,30,15,0.0460882619614059,1
349,31,15,0.0501368628411725,1
349,32,15,0.0560344372674726,1
349,33,15,0.0593296745310004,1
349,34,15,0.056016481501138,1
349,35,15,0.0517177488484304,1
350,30,15,0.0442960348001675,1
350,31,15,0.0480920357325481,1
350,32,15,0.0522705820769596,1
350,33,15,0.0560071819172489,1
350,34,15,0.0566210517751521,1
350,35,15,0.0542223376524061,1
351,31,15,0.0443389723847343,1
351,32,15,0.0472302454562449,1
351,33,15,0.051741414126734,1
351,34,15,0.0578766253618079,1
351,35,15,0.0592688812046932,1
352,32,15,0.0444171781005267,1
352,33,15,0.0491278688026816,1
352,34,15,0.057890109758447,1
352,35,15,0.0623749314101621,1
353,35,15,0.0597906797753601,1
353,36,15,0.0607893685772856,1
354,36,15,0.0604136545746989,1
331,33,16,0.0422117763745066,1
331,34,16,0.0466377970816954,1
331,35,16,0.0483787494732759,1
331,36,16,0.0491013703953327,1
332,32,16,0.0455167754977505,1
332,33,16,0.0505835888988748,1
332,34,16,0.055599443824328,1
332,35,16,0.0554308996798088,1
332,36,16,0.053470060789866,1
333,28,16,0.0450114782817518,1
333,29,16,0.0459928439053166,1
333,32,16,0.0506406948320352,1
333,33,16,0.0564475929086823,1
333,34,16,0.0604535076170513,1
333,35,16,0.0593163577431406,1
333,36,16,0.0569867038442404,1
334,27,16,0.0439265844998688,1
334,28,16,0.047328545301993,1
334,29,16,0.0475411813689628,1
334,30,16,0.0463132470107028,1
334,32,16,0.0531091720541535,1
334,33,16,0.0578350854181919,1
334,34,16,0.0600027913890525,1
334,35,16,0.0594569869157882,1
335,27,16,0.0449530774356021,1
335,28,16,0.0494487963613453,1
335,29,16,0.050431870513113,1
335,30,16,0.0491027328925071,1
335,31,16,0.0498201092817892,1
335,32,16,0.0550022050827287,1
335,33,16,0.0594293747210666,1
335,34,16,0.0604147737688065,1
335,35,16,0.0594240058333911,1
336,26,16,0.0412564576959334,1
336,27,16,0.0478821841340102,1
336,28,16,0.0545223844011981,1
336,29,16,0.055622292685674,1
336,30,16,0.0521649452920619,1
336,31,16,0.0512090832366393,1
336,32,16,0.054807357173314,1
336,33,16,0.059875614172635,1
336,34,16,0.0600852008411668,1
336,35,16,0.0575631374702554,1
336,36,16,0.0552804572834644,1
337,26,16,0.0432394209447564,1
337,27,16,0.0493718477113984,1
337,28,16,0.0532313696678024,1
337,29,16,0.0533571843870454,1
337,30,16,0.051540267371255,1
337,31,16,0.052913572608599,1
337,32,16,0.056388118825671,1
337,33,16,0.0623222644062882,1
337,34,16,0.0615988108470693,1
337,35,16,0.0571582108794405,1
337,36,16,0.0539121046152148,1
338,26,16,0.0506748599893578,1
338,27,16,0.0551557996054727,1
338,28,16,0.0508548610049589,1
338,29,16,0.0488555694169818,1
338,30,16,0.0508361591092192,1
338,31,16,0.0551101992040075,1
338,32,16,0.0577057292876424,1
338,33,16,0.0625547918506578,1
338,34,16,0.0609280783590724,1
338,35,16,0.0554043796455206,1
339,26,16,0.0540174818768412,1
339,27,16,0.0573994593870735,1
339,28,16,0.049814972883711,1
339,29,16,0.0474266126581437,1
339,30,16,0.0502898950634954,1
339,31,16,0.0540768153847471,1
339,32,16,0.0550794348828862,1
339,33,16,0.0577045343992473,1
339,34,16,0.0560111072067277,1
340,26,16,0.0445034804017109,1
340,27,16,0.0477350019987617,1
340,28,16,0.0461444109025034,1
340,29,16,0.0473168180941701,1
340,30,16,0.0489106748582592,1
340,31,16,0.0513955128599404,1
340,33,16,0.0564236843273118,1
341,28,16,0.0423135419372737,1
341,29,16,0.0453838617356899,1
343,33,16,0.0525346307853252,1
343,34,16,0.0548045456712081,1
344,32,16,0.0514694445518582,1
344,33,16,0.0550489895591193,1
344,34,16,0.0579126666561127,1
344,35,16,0.0590718273474723,1
345,31,16,0.0485521164252538,1
345,32,16,0.0518409791484297,1
345,33,16,0.0552264710362946,1
345,34,16,0.0555052909441863,1
346,30,16,0.0457706973917998,1
346,31,16,0.0481855343977767,1
346,32,16,0.0508431554240753,1
346,33,16,0.0534703040929329,1
347,29,16,0.0434410516030017,1
347,30,16,0.0463698338973207,1
347,31,16,0.0482982215648786,1
347,32,16,0.0502404450668389,1
347,33,16,0.0515545357444429,1
348,29,16,0.0423738108103035,1
348,30,16,0.0460795300846729,1
348,31,16,0.0495124931042504,1
348,32,16,0.053161163216175,1
348,33,16,0.0535458469918268,1
348,34,16,0.0514217355238136,1
349,30,16,0.0449389253072128,1
349,31,16,0.0497276919635245,1
349,32,16,0.0548755793532628,1
349,33,16,0.0560895805558937,1
349,34,16,0.0527928402200861,1
350,30,16,0.042400352471531,1
350,31,16,0.0466638034761758,1
350,32,16,0.0510110669806206,1
350,33,16,0.0544233492395146,1
350,34,16,0.0543922388873649,1
350,35,16,0.0532821010606111,1
351,31,16,0.0423323654845468,1
351,32,16,0.0459382088499685,1
351,33,16,0.0515387859259146,1
351,34,16,0.0567026285901044,1
352,33,16,0.0485256937121923,1
331,34,17,0.0448888400192151,1
332,33,17,0.0546553197901979,1
332,34,17,0.058181511138263,1
332,35,17,0.0556924775103621,1
333,27,17,0.0412788794252286,1
333,28,17,0.0457606570852405,1
333,29,17,0.0471578763106898,1
333,32,17,0.0583226593574533,1
333,33,17,0.0685538831299233,1
333,34,17,0.0694460971030542,1
333,35,17,0.061995816571374,1
334,27,17,0.0446285787285903,1
334,28,17,0.0488007451259151,1
334,29,17,0.0491341784622156,1
334,30,17,0.0473918906071348,1
334,32,17,0.0612472811693288,1
334,33,17,0.0719780872390937,1
334,34,17,0.0708698633964658,1
335,27,17,0.0462169584703076,1
335,28,17,0.050273069304738,1
335,29,17,0.0497239883501734,1
335,30,17,0.0488357591406043,1
335,31,17,0.0502649321688351,1
335,32,17,0.0590453343468582,1
335,33,17,0.0674393874749052,1
335,34,17,0.0666209808387913,1
335,35,17,0.0613651750220616,1
336,26,17,0.0422561116000241,1
336,27,17,0.0493337951117408,1
336,28,17,0.0542414450532572,1
336,29,17,0.0527534900040719,1
336,30,17,0.0504927773808514,1
336,31,17,0.0508815108008828,1
336,32,17,0.0552117701243212,1
336,33,17,0.0613677432211008,1
336,34,17,0.0616421187929711,1
336,35,17,0.0583141491568478,1
336,36,17,0.0554040822751056,1
337,26,17,0.0437062276155772,1
337,27,17,0.0491638289959642,1
337,28,17,0.0522931714150342,1
337,29,17,0.0514509264851025,1
337,30,17,0.0503758945875297,1
337,31,17,0.0523506828533061,1
337,32,17,0.0558799992940967,1
337,33,17,0.0618147125818699,1
337,34,17,0.0620310847025997,1
337,35,17,0.0578091384977945,1
337,36,17,0.0541860692752389,1
338,26,17,0.0504600882621344,1
338,27,17,0.0537492267287862,1
338,28,17,0.0497492864623924,1
338,29,17,0.0483342250120397,1
338,30,17,0.0496404705174211,1
338,31,17,0.0536538140794316,1
338,32,17,0.0566509780523765,1
338,33,17,0.0611516900977252,1
338,34,17,0.0606132009366714,1
338,35,17,0.0555946318303389,1
339,26,17,0.0547929320048164,1
339,27,17,0.0572600953903736,1
339,28,17,0.0494172696906145,1
339,29,17,0.047411863085557,1
339,30,17,0.049327209708731,1
339,31,17,0.0532440971215668,1
339,32,17,0.0553026086760187,1
339,33,17,0.0572183229571604,1
339,34,17,0.0563746182088275,1
340,26,17,0.0437322691538339,1
340,27,17,0.0468711841969013,1
340,28,17,0.0452685847426096,1
340,29,17,0.0473253120745711,1
340,30,17,0.0489864123996067,1
343,33,17,0.053182903696883,1
344,32,17,0.0519114775637374,1
344,33,17,0.0547810696286231,1
344,34,17,0.0550432530134761,1
345,32,17,0.0518186493336264,1
345,33,17,0.0551963987772302,1
346,30,17,0.0445862494016907,1
346,31,17,0.046750495062267,1
346,32,17,0.048946716152564,1
347,29,17,0.0419883430581028,1
347,30,17,0.045573281283346,1
347,31,17,0.04747173186021,1
347,32,17,0.0481139113816266,1
348,29,17,0.0411922797536294,1
348,30,17,0.046099713425753,1
348,31,17,0.0499906160710478,1
348,32,17,0.051313162881909,1
348,33,17,0.0500020513151904,1
349,30,17,0.0450189666094764,1
349,31,17,0.0500526529463634,1
349,32,17,0.052479611851805,1
349,33,17,0.0520970637364067,1
349,34,17,0.0492209944032076,1
350,30,17,0.041674357746947,1
350,31,17,0.046049830890311,1
350,32,17,0.0489717168943681,1
350,33,17,0.0515487505381864,1
350,34,17,0.0507845842657788,1
351,31,17,0.041116688194122,1
351,32,17,0.044405491443215,1
351,33,17,0.0495001170882492,1
333,27,18,0.0415049728551634,1
333,28,18,0.045806608924469,1
333,29,18,0.0467686833181988,1
333,33,18,0.0919516470082114,1
333,34,18,0.0854192570333186,1
334,27,18,0.044256946810792,1
334,28,18,0.0491665972441916,1
334,29,18,0.0496011257081417,1
334,30,18,0.0465709914662693,1
334,32,18,0.0763503893324863,1
334,33,18,0.102695012922961,1
334,34,18,0.0939296793148793,1
335,27,18,0.0466270809332838,1
335,28,18,0.0506251018088166,1
335,29,18,0.0497368725992475,1
335,30,18,0.0478817570019595,1
335,31,18,0.0498625737770593,1
335,32,18,0.0657351630329516,1
335,33,18,0.0831461143267486,1
335,34,18,0.0787950120405822,1
335,35,18,0.0651345180484161,1
336,26,18,0.0428305988015042,1
336,27,18,0.0501540508511628,1
336,28,18,0.053738705222828,1
336,29,18,0.0515183809087069,1
336,30,18,0.0495085624080368,1
336,31,18,0.0508051352648266,1
336,32,18,0.0559912915236153,1
336,33,18,0.0635137195247229,1
336,34,18,0.0638654005910383,1
336,35,18,0.0599686965192825,1
336,36,18,0.0559333205128837,1
337,26,18,0.043886834185478,1
337,27,18,0.049528324023801,1
337,28,18,0.0523422375335185,1
337,29,18,0.0511322156877146,1
337,30,18,0.0502097185928614,1
337,31,18,0.0522464680396659,1
337,32,18,0.0557046913243187,1
337,33,18,0.0608832186802774,1
337,34,18,0.0622825519390411,1
337,35,18,0.0591747823918997,1
337,36,18,0.0551226779479703,1
338,26,18,0.0476932241588137,1
338,27,18,0.0510360244685461,1
338,28,18,0.0496438118795393,1
338,29,18,0.0488082280469049,1
338,30,18,0.0493379691110212,1
338,31,18,0.0521503038541715,1
338,32,18,0.0551387035099744,1
338,33,18,0.0587841079540682,1
338,34,18,0.0598504404153168,1
338,35,18,0.0565561871775261,1
339,26,18,0.0501871616951956,1
339,27,18,0.052660331963137,1
339,28,18,0.0484548979264696,1
339,29,18,0.0477337638564881,1
339,30,18,0.0491336756358774,1
340,26,18,0.0412514105089796,1
340,27,18,0.0444822968146892,1
340,28,18,0.0446847709235663,1
340,29,18,0.0473361039172702,1
344,33,18,0.0536179349871713,1
346,30,18,0.0436886530240473,1
346,31,18,0.0451739831034779,1
347,29,18,0.0418617740993526,1
347,30,18,0.045523009462997,1
347,31,18,0.0465227525782123,1
347,32,18,0.0460390444543467,1
348,29,18,0.0417057384358377,1
348,30,18,0.0470715956364449,1
348,31,18,0.0497351748845143,1
348,32,18,0.048797787641969,1
348,33,18,0.0470658969379455,1
349,30,18,0.04648484055366,1
349,31,18,0.0502223757590731,1
349,32,18,0.0499193823398047,1
349,33,18,0.0483852213348545,1
350,30,18,0.0429141139308891,1
350,31,18,0.0463320894815478,1
350,32,18,0.0474611508801688,1
350,33,18,0.0483470065331523,1
351,31,18,0.0416635523874108,1
333,26,19,0.0415936135691569,1
333,27,19,0.043175629583992,1
333,28,19,0.046267576321685,1
333,29,19,0.0463463794816749,1
333,32,19,0.0763005716778621,1
333,33,19,0.110018510929866,1
333,34,19,0.0967702696541948,1
334,26,19,0.0414573043776299,1
334,27,19,0.0450186827558984,1
334,28,19,0.0492970996025228,1
334,29,19,0.0496026612208303,1
334,30,19,0.0466292165935373,1
334,31,19,0.0521803220458877,1
334,32,19,0.0892435054517621,1
334,33,19,0.132232232323156,1
334,34,19,0.116971604347776,1
334,35,19,0.0775494841672205,1
335,26,19,0.0427163626048766,1
335,27,19,0.0474322626960298,1
335,28,19,0.0505388319480414,1
335,29,19,0.0498623358807273,1
335,30,19,0.0479979477332243,1
335,31,19,0.0514168856826807,1
335,32,19,0.0718409562238741,1
335,33,19,0.100034737189866,1
335,34,19,0.0938193711110979,1
335,35,19,0.072597607134883,1
336,26,19,0.044323638884787,1
336,27,19,0.0499562562712717,1
336,28,19,0.0522448297990157,1
336,29,19,0.0508421605848686,1
336,30,19,0.0499866745613646,1
336,31,19,0.0523724179272793,1
336,32,19,0.0584616881365944,1
336,33,19,0.0683533851826226,1
336,34,19,0.0702282245485312,1
336,35,19,0.0659502861979382,1
336,36,19,0.0598356854359952,1
337,26,19,0.0444205410895842,1
337,27,19,0.0495701883715062,1
337,28,19,0.0521300610390083,1
337,29,19,0.0511029057782597,1
337,30,19,0.0505440602606115,1
337,31,19,0.0526253233551826,1
337,32,19,0.0563174365813795,1
337,33,19,0.0608795475073352,1
337,34,19,0.0636444705928558,1
337,35,19,0.0622496303307269,1
337,36,19,0.0587506078251284,1
338,26,19,0.0448659073534794,1
338,27,19,0.0489137188499624,1
338,28,19,0.0503245252000124,1
338,29,19,0.0496795828371032,1
338,30,19,0.0494983058320848,1
338,31,19,0.0514037310968656,1
338,34,19,0.0601786400323124,1
338,35,19,0.0588806343907955,1
338,36,19,0.0563758185039573,1
339,26,19,0.0446492703027434,1
339,27,19,0.0478887911639593,1
339,28,19,0.0480060740556575,1
339,29,19,0.0481108944235975,1
339,30,19,0.0490764669747554,1
339,31,19,0.0511028571176463,1
339,35,19,0.0550404306979005,1
340,27,19,0.0428270249497887,1
340,28,19,0.0443769519934718,1
340,29,19,0.0468345697887057,1
340,30,19,0.0492925255048658,1
346,30,19,0.0433000088151404,1
347,29,19,0.0415362264857859,1
347,30,19,0.0453407349154045,1
347,31,19,0.0455166619563193,1
348,29,19,0.0414913532901539,1
348,30,19,0.0472321540336361,1
348,31,19,0.0483492395146327,1
348,32,19,0.0471094049330356,1
349,30,19,0.0467438501851742,1
349,31,19,0.0487121611826372,1
349,32,19,0.048043472440402,1
350,30,19,0.043911894401365,1
350,31,19,0.0460281012230726,1
332,26,20,0.0456011692215435,1
332,27,20,0.0437137051298321,1
332,28,20,0.0431915443079323,1
332,29,20,0.0414612458873131,1
333,25,20,0.0441743454195916,1
333,26,20,0.0458973663751442,1
333,27,20,0.0457784939034091,1
333,28,20,0.0469964636493972,1
333,29,20,0.046807254964399,1
333,30,20,0.0441894410232068,1
333,32,20,0.0758055796984288,1
333,33,20,0.113868722488911,1
333,34,20,0.101082562397829,1
334,24,20,0.0416271839856494,1
334,25,20,0.0427539529287071,1
334,26,20,0.0442910822310731,1
334,27,20,0.0465124960022603,1
334,28,20,0.0494582905876879,1
334,29,20,0.0502163580632193,1
334,30,20,0.0481652645489395,1
334,31,20,0.0555134443002937,1
334,32,20,0.0954042905425308,1
334,33,20,0.14707349231902,1
334,34,20,0.132818960372267,1
334,35,20,0.0854081137528562,1
335,23,20,0.0431230950451212,1
335,24,20,0.0436826731753373,1
335,25,20,0.0434177080254198,1
335,26,20,0.0456784855294582,1
335,27,20,0.0485702830542463,1
335,28,20,0.050714718438445,1
335,29,20,0.0511823631531628,1
335,30,20,0.0500885050049495,1
335,31,20,0.0544342059630316,1
335,32,20,0.0775985502857049,1
335,33,20,0.113372968159868,1
335,34,20,0.11156151735298,1
335,35,20,0.0853106789846792,1
335,36,20,0.0666774379637735,1
336,23,20,0.0414888715988718,1
336,24,20,0.0418936143607029,1
336,25,20,0.0427687133147636,1
336,26,20,0.0464416839963331,1
336,27,20,0.0499901510918533,1
336,28,20,0.0517414952277563,1
336,29,20,0.0523196644156483,1
336,30,20,0.052685121842283,1
336,31,20,0.0558958896877304,1
336,32,20,0.0637752919485414,1
336,33,20,0.0753735869931089,1
336,34,20,0.0823497617619623,1
336,35,20,0.0797147084467991,1
336,36,20,0.0736049196788451,1
336,37,20,0.0650104334843153,1
337,25,20,0.0415525548249399,1
337,26,20,0.0454051102035294,1
337,27,20,0.0496078084323782,1
337,28,20,0.0523692928345538,1
337,29,20,0.053007866063846,1
337,30,20,0.053117590340267,1
337,31,20,0.0553185963908791,1
337,32,20,0.0583773971407629,1
337,33,20,0.0609167512496262,1
337,34,20,0.0675471058527083,1
337,35,20,0.0724216233232526,1
337,36,20,0.0721728270138119,1
337,37,20,0.0654367328978706,1
338,26,20,0.043509257562746,1
338,27,20,0.0480980642418715,1
338,28,20,0.051447920340543,1
338,29,20,0.0519799808938968,1
338,30,20,0.0515826994261162,1
338,31,20,0.0528057406893647,1
338,32,20,0.0553827094523652,1
338,34,20,0.0617323571971037,1
338,35,20,0.0649752302339075,1
338,36,20,0.064920995276936,1
339,26,20,0.0413611672258096,1
339,27,20,0.0456316469857194,1
339,28,20,0.0486439444094232,1
339,29,20,0.0497498433560788,1
339,30,20,0.0504716262342386,1
339,31,20,0.0516635949924812,1
339,35,20,0.0581796782551593,1
340,27,20,0.0418581380701867,1
340,28,20,0.0440590630197765,1
340,29,20,0.0465264886319724,1
340,30,20,0.0495703343533463,1
341,28,20,0.0417270004205142,1
343,28,20,0.0410374362751421,1
346,30,20,0.0424916127485444,1
347,30,20,0.0442158853632076,1
347,31,20,0.0435322767362388,1
348,30,20,0.0461161715265427,1
348,31,20,0.0461209240464488,1
349,30,20,0.045953055743782,1
349,31,20,0.0465660280837053,1
350,30,20,0.0442989436235002,1
316,12,21,0.0422469255575663,1
316,13,21,0.0411050556041585,1
317,12,21,0.0445206954453752,1
317,13,21,0.0438740688845698,1
318,12,21,0.0423322195027067,1
318,13,21,0.0416841141999282,1
323,36,21,0.0463178265150947,1
331,25,21,0.0443997440841021,1
331,26,21,0.0463950779421915,1
331,27,21,0.0429998647451218,1
332,25,21,0.0510117103820641,1
332,26,21,0.0525071645724436,1
332,27,21,0.0486078112006265,1
332,28,21,0.0447945817077444,1
332,29,21,0.0424338228634293,1
333,24,21,0.0444128337890995,1
333,25,21,0.0494546356349501,1
333,26,21,0.0503931961389512,1
333,27,21,0.048741114247594,1
333,28,21,0.0476260400719502,1
333,29,21,0.0477861388966818,1
333,30,21,0.0469233754081112,1
333,31,21,0.0513877650089445,1
333,32,21,0.0739145255347974,1
333,33,21,0.106441772017976,1
333,34,21,0.102306041606598,1
334,24,21,0.0440545754298765,1
334,25,21,0.0463948616727988,1
334,26,21,0.0477724166037106,1
334,27,21,0.0487733600140558,1
334,28,21,0.0502899707577829,1
334,29,21,0.0525286617500848,1
334,30,21,0.0535434301813627,1
334,31,21,0.061290789164419,1
334,32,21,0.0934114113420493,1
334,33,21,0.135745258271937,1
334,34,21,0.128872119648533,1
334,35,21,0.0879177362269486,1
335,23,21,0.0447044162945319,1
335,24,21,0.0462125682016344,1
335,25,21,0.0470962179068116,1
335,26,21,0.0490278982758744,1
335,27,21,0.0502714580977619,1
335,28,21,0.0519864473487405,1
335,29,21,0.0545977056239644,1
335,30,21,0.0558876336036614,1
335,31,21,0.0618880765666317,1
335,32,21,0.0835416169787737,1
335,33,21,0.113890522443702,1
335,34,21,0.116043073336865,1
335,35,21,0.0950697109784486,1
335,36,21,0.0798702656142825,1
336,23,21,0.044292685327947,1
336,24,21,0.0460969884314041,1
336,25,21,0.0468912810302243,1
336,26,21,0.0489582973785468,1
336,27,21,0.0505271966547104,1
336,28,21,0.052795743636684,1
336,29,21,0.0557506431635472,1
336,30,21,0.0575383313709049,1
336,31,21,0.0627876004452381,1
336,32,21,0.0726023866884632,1
336,33,21,0.0819460570932165,1
336,34,21,0.0902159337426707,1
336,35,21,0.0945000790248361,1
336,36,21,0.094811701592876,1
336,37,21,0.0814823376679775,1
337,24,21,0.0433542437721119,1
337,25,21,0.0451571411245161,1
337,26,21,0.0470685408312721,1
337,27,21,0.0494438600124554,1
337,28,21,0.0530657830072294,1
337,29,21,0.0557536871552504,1
337,30,21,0.0568833649216408,1
337,31,21,0.0596410375757689,1
337,32,21,0.0638073106321407,1
337,33,21,0.0654138840365246,1
337,34,21,0.0740930991724062,1
337,35,21,0.086977575329441,1
337,36,21,0.0927072057587868,1
337,37,21,0.0818320560895535,1
338,25,21,0.0426627710493486,1
338,26,21,0.0446982661336751,1
338,27,21,0.0484507563675981,1
338,28,21,0.0534004490790687,1
338,29,21,0.0551201475960749,1
338,30,21,0.0550835007474703,1
338,31,21,0.0549357184646569,1
338,32,21,0.0565164855237487,1
338,34,21,0.0639188191310521,1
338,35,21,0.0718394801852685,1
338,36,21,0.0748940907156674,1
338,37,21,0.0687193129951866,1
339,26,21,0.0421563249022008,1
339,27,21,0.0466696860036591,1
339,28,21,0.0517310656362901,1
339,29,21,0.0528399058466873,1
339,30,21,0.0533578440086933,1
339,31,21,0.0530371327194224,1
339,35,21,0.0612662804354835,1
339,36,21,0.0608945457897237,1
340,27,21,0.0434280159653526,1
340,28,21,0.0464666685179327,1
340,29,21,0.0479382195336765,1
340,30,21,0.0507345719687011,1
341,28,21,0.0416408873550487,1
341,29,21,0.0443953592221638,1
343,28,21,0.0417312365972451,1
343,29,21,0.0432037094612755,1
344,28,21,0.0415659175700455,1
344,29,21,0.0425650983848396,1
346,30,21,0.0434115876016044,1
347,30,21,0.0443040881316807,1
347,31,21,0.0441910278998763,1
348,29,21,0.041061182654468,1
348,30,21,0.0458397576156455,1
348,31,21,0.0460169525358754,1
349,29,21,0.0422553168100057,1
349,30,21,0.0460323995772539,1
349,31,21,0.0462402074300301,1
350,29,21,0.0433871626770587,1
350,30,21,0.0456220662516197,1
350,31,21,0.0457162137250266,1
351,30,21,0.0419559729367402,1
306,9,22,0.056987433753441,1
306,10,22,0.0421309646125313,1
307,9,22,0.0481867346929065,1
308,9,22,0.0434077893703939,1
308,10,22,0.042707528000182,1
309,9,22,0.0410185911009297,1
309,10,22,0.042551524777076,1
316,12,22,0.0449240540830926,1
316,13,22,0.0430513638942747,1
317,11,22,0.0415541389982419,1
317,12,22,0.0479521905364493,1
317,13,22,0.0469326047044475,1
318,12,22,0.0455650306060119,1
318,13,22,0.0456806211897118,1
319,12,22,0.0410855129611545,1
322,36,22,0.0415068354753087,1
322,37,22,0.0507049538753615,1
323,36,22,0.0495758600363315,1
324,36,22,0.0479820194924469,1
325,36,22,0.0437634822339452,1
331,25,22,0.046606319071578,1
331,26,22,0.0496088248985242,1
331,27,22,0.0444701992455313,1
332,24,22,0.0467667477071335,1
332,25,22,0.0557430737348003,1
332,26,22,0.0577394456859749,1
332,27,22,0.0514618534961721,1
332,28,22,0.0456282461495181,1
332,29,22,0.0430101672783198,1
332,31,22,0.0419824443104151,1
332,32,22,0.0546346930968626,1
332,33,22,0.0742733597112786,1
333,24,22,0.0480409637154459,1
333,25,22,0.0536634705078187,1
333,26,22,0.054242975159211,1
333,27,22,0.0506787906855714,1
333,28,22,0.0482035442314595,1
333,29,22,0.0494448764786014,1
333,30,22,0.0516054293392961,1
333,31,22,0.0547018447433172,1
333,32,22,0.0716164091200976,1
333,33,22,0.102025972742963,1
333,34,22,0.112179290873423,1
334,23,22,0.041617116645416,1
334,24,22,0.0462902413540471,1
334,25,22,0.0498385029936442,1
334,26,22,0.0518944571625265,1
334,27,22,0.0516469152155639,1
334,28,22,0.0520939116100071,1
334,29,22,0.056917540892433,1
334,30,22,0.0617011819641361,1
334,31,22,0.0662320257426323,1
334,32,22,0.0854557200529393,1
334,33,22,0.117687055939463,1
334,34,22,0.12250316986049,1
334,35,22,0.0932069502581262,1
335,23,22,0.0449121024957747,1
335,24,22,0.0483334302220213,1
335,25,22,0.0506873711737295,1
335,26,22,0.0527106091902208,1
335,27,22,0.0527839137008996,1
335,28,22,0.0546037665736968,1
335,29,22,0.060628853433973,1
335,30,22,0.0642698459824543,1
335,31,22,0.0690329360551096,1
335,32,22,0.0841684251530993,1
335,33,22,0.105621235128343,1
335,34,22,0.110049286064457,1
335,35,22,0.100870769781491,1
335,36,22,0.0934430191138024,1
335,37,22,0.078323971896398,1
336,23,22,0.0461228218103703,1
336,24,22,0.0506229120812149,1
336,25,22,0.0517913182891153,1
336,26,22,0.0514974081843432,1
336,27,22,0.0510077472454416,1
336,28,22,0.0543065097000716,1
336,29,22,0.0607515917211038,1
336,30,22,0.0636346627758938,1
336,31,22,0.0700774415278931,1
336,32,22,0.0796284548062283,1
336,33,22,0.0849235729918284,1
336,34,22,0.09050634028328,1
336,35,22,0.105987822562555,1
336,36,22,0.1156308098069,1
336,37,22,0.0976459444255137,1
336,38,22,0.0689574201898897,1
337,23,22,0.0419080908931813,1
337,24,22,0.0475791150204543,1
337,25,22,0.0498013262850273,1
337,26,22,0.0488167220273058,1
337,27,22,0.0484622510858237,1
337,28,22,0.0526990441844425,1
337,29,22,0.0583692113442466,1
337,30,22,0.0605066125664455,1
337,31,22,0.0650317576464423,1
337,32,22,0.0706847043558472,1
337,33,22,0.0719503344692667,1
337,34,22,0.0807078120916564,1
337,35,22,0.103459244076187,1
337,36,22,0.114480494533705,1
337,37,22,0.0983372170990887,1
337,38,22,0.0711353719232327,1
338,24,22,0.0421673816749061,1
338,25,22,0.0450353706429179,1
338,26,22,0.0455101468408621,1
338,27,22,0.0471073503738043,1
338,28,22,0.0530182199610248,1
338,29,22,0.0576462173574873,1
338,30,22,0.0586278965716716,1
338,31,22,0.0586729617063897,1
338,32,22,0.0596047421649276,1
338,34,22,0.0684390224554241,1
338,35,22,0.0824184867682493,1
338,36,22,0.0867806187934469,1
338,37,22,0.0766783618666194,1
339,26,22,0.0422990708115301,1
339,27,22,0.0461546404447814,1
339,28,22,0.0529185522113675,1
339,29,22,0.0561709681351272,1
339,30,22,0.056629280825547,1
339,31,22,0.0549606381054386,1
339,32,22,0.0539134887393285,1
339,35,22,0.0665782676337196,1
339,36,22,0.0660980684807516,1
340,27,22,0.043701731915575,1
340,28,22,0.0482569303310643,1
340,29,22,0.0505529921865329,1
340,30,22,0.0524293886920693,1
340,31,22,0.0525253095744969,1
341,28,22,0.0414629057549026,1
341,29,22,0.0444051589290236,1
341,30,22,0.0487663204453212,1
343,28,22,0.0422682443129584,1
343,29,22,0.0435573802060044,1
344,28,22,0.0434513352126278,1
344,29,22,0.0443355282946544,1
344,30,22,0.0444076649506123,1
345,29,22,0.0436989907010217,1
345,30,22,0.0443271938129306,1
346,29,22,0.0422072698610348,1
346,30,22,0.0452815987533194,1
346,31,22,0.044718468398327,1
347,29,22,0.0412948617333542,1
347,30,22,0.0460192233644995,1
347,31,22,0.0455532385173712,1
348,29,22,0.0424126473865098,1
348,30,22,0.046674054645393,1
349,29,22,0.045834150831638,1
349,30,22,0.0479171603015557,1
349,31,22,0.0457021075538833,1
350,29,22,0.0478687808383934,1
350,30,22,0.0488708326293765,1
350,31,22,0.0460010513287721,1
351,29,22,0.044437369551709,1
351,30,22,0.0461644644819479,1
351,31,22,0.0451168555433781,1
305,10,23,0.0434278564666754,1
306,9,23,0.0648363690635457,1
306,10,23,0.0460445052565141,1
307,9,23,0.0533573303688855,1
307,10,23,0.044024370705809,1
308,9,23,0.0471180178616026,1
308,10,23,0.0467663530154917,1
309,9,23,0.0456837733161114,1
309,10,23,0.0491658835551955,1
309,11,23,0.0427062222737232,1
310,10,23,0.0433862327186698,1
316,11,23,0.0425726624068517,1
316,12,23,0.044797001221576,1
316,13,23,0.0416799131669737,1
317,11,23,0.0453779792082066,1
317,12,23,0.0490071850747821,1
317,13,23,0.0464785957749438,1
318,12,23,0.0483068020530367,1
318,13,23,0.0474421137668704,1
319,12,23,0.0452136144697027,1
319,13,23,0.0449474571347575,1
320,12,23,0.0432994059642081,1
320,13,23,0.0431304076539641,1
321,13,23,0.0421385529648501,1
322,36,23,0.0420130275059199,1
322,37,23,0.0516504944740142,1
323,36,23,0.0516420545609615,1
323,37,23,0.0606650731505269,1
324,36,23,0.0507388378824735,1
325,36,23,0.047095996230684,1
326,36,23,0.044649254082539,1
331,25,23,0.0447754445698519,1
331,26,23,0.0483844157313664,1
331,27,23,0.0430278716314853,1
331,32,23,0.0417274113323605,1
331,33,23,0.0538456396240823,1
332,24,23,0.0468132834737224,1
332,25,23,0.0547835350997006,1
332,26,23,0.0576736024693466,1
332,27,23,0.0510610198036153,1
332,28,23,0.0453515078345318,1
332,29,23,0.0427691134131402,1
332,30,23,0.0414234257772527,1
332,31,23,0.0445175487257105,1
332,32,23,0.0581864258602137,1
332,33,23,0.0820148415735865,1
332,34,23,0.096564748850247,1
333,23,23,0.0415224933793451,1
333,24,23,0.0495295189121961,1
333,25,23,0.0541920707508882,1
333,26,23,0.0553366386649708,1
333,27,23,0.0512399394722525,1
333,28,23,0.049136979150852,1
333,29,23,0.0511408069893423,1
333,30,23,0.0553201102766284,1
333,31,23,0.0590276435105298,1
333,32,23,0.0719382612304154,1
333,33,23,0.103255518308199,1
333,34,23,0.123778964635369,1
333,35,23,0.106005394450718,1
334,23,23,0.0431921093117209,1
334,24,23,0.0494048342005303,1
334,25,23,0.0526484804004133,1
334,26,23,0.0550603869561182,1
334,27,23,0.0538069760633901,1
334,28,23,0.0540026349830276,1
334,29,23,0.0597533787118424,1
334,30,23,0.0668536812986752,1
334,31,23,0.0694992507130618,1
334,32,23,0.0793863844749027,1
334,33,23,0.10490779484201,1
334,34,23,0.118914979484253,1
334,35,23,0.100975974027603,1
335,23,23,0.0454147125645683,1
335,24,23,0.0516808803236982,1
335,25,23,0.0543504069800687,1
335,26,23,0.0559560450193289,1
335,27,23,0.054947467299419,1
335,28,23,0.0568451663401431,1
335,29,23,0.064297041858595,1
335,30,23,0.0703158460930112,1
335,31,23,0.0727234759214741,1
335,32,23,0.0799518208022954,1
335,33,23,0.0920569918294288,1
335,34,23,0.0982840256419373,1
335,35,23,0.099282260278138,1
335,36,23,0.0991232482071051,1
336,23,23,0.0473271017037962,1
336,24,23,0.0553391582033965,1
336,25,23,0.0571053276061738,1
336,26,23,0.0548458531252268,1
336,27,23,0.0521904542669389,1
336,28,23,0.0554020439360787,1
336,29,23,0.0631682724236541,1
336,30,23,0.0682390003007875,1
336,31,23,0.0733233964035438,1
336,32,23,0.0799119245060645,1
336,33,23,0.0808718632395408,1
336,34,23,0.0857345669945051,1
336,35,23,0.107828729260738,1
336,36,23,0.125180606569901,1
336,37,23,0.10545177724564,1
337,23,23,0.0438680538920835,1
337,24,23,0.0520191743146012,1
337,25,23,0.0555565143498635,1
337,26,23,0.0525726563513087,1
337,27,23,0.0493154230268251,1
337,28,23,0.0524746430625061,1
337,29,23,0.0592257246473663,1
337,30,23,0.0636463575433077,1
337,31,23,0.0691614162946184,1
337,32,23,0.074518246951445,1
337,33,23,0.0741693341333571,1
337,34,23,0.082738127524026,1
337,35,23,0.110528030805758,1
337,36,23,0.126387497916244,1
337,37,23,0.107229781990936,1
338,24,23,0.04464593434736,1
338,25,23,0.0484345037227316,1
338,26,23,0.0476747817863454,1
338,27,23,0.0469379952190623,1
338,28,23,0.0519232588389085,1
338,29,23,0.0585336139298943,1
338,30,23,0.0618641355448522,1
338,31,23,0.0640132315344651,1
338,32,23,0.0646332812902667,1
338,33,23,0.0642166383050985,1
338,34,23,0.0714492274727529,1
338,35,23,0.0886575884128742,1
338,36,23,0.0943394341198878,1
339,25,23,0.0418026974113505,1
339,26,23,0.0433055399048605,1
339,27,23,0.0458919812672642,1
339,28,23,0.0519652583549841,1
339,29,23,0.0576703043611069,1
339,30,23,0.0591027322436989,1
339,31,23,0.058358911514416,1
339,32,23,0.0561681350060819,1
339,35,23,0.0677404290629039,1
340,26,23,0.0416973444800309,1
340,27,23,0.0449238756608436,1
340,28,23,0.0496383510773719,1
340,29,23,0.0536664928725826,1
340,30,23,0.0545489855365086,1
340,31,23,0.0539245725457079,1
341,27,23,0.0411541190192754,1
341,28,23,0.0430500311341418,1
341,29,23,0.0460154602770653,1
341,30,23,0.0493678413208973,1
343,28,23,0.0435246532401437,1
343,29,23,0.0446719164115337,1
344,27,23,0.0412469066988752,1
344,28,23,0.0453046530705885,1
344,29,23,0.0466667988072656,1
344,30,23,0.0457114720185902,1
345,28,23,0.0424522922695717,1
345,29,23,0.0458327613007895,1
345,30,23,0.0459429829968138,1
346,29,23,0.0434099601744239,1
346,30,23,0.046838716754312,1
346,31,23,0.0461622855678157,1
347,29,23,0.0420936878793203,1
347,30,23,0.0471730800490015,1
347,31,23,0.0468840576325059,1
348,29,23,0.0430123813362282,1
348,30,23,0.0466712809904308,1
349,29,23,0.0479754773433156,1
349,30,23,0.0490973964452405,1
349,31,23,0.0462114706344661,1
350,29,23,0.0500731985386764,1
350,30,23,0.0508943788297525,1
350,31,23,0.0466062866311691,1
351,29,23,0.0486352936337125,1
351,30,23,0.0509676995606358,1
351,31,23,0.0470556782091372,1
352,30,23,0.0431158067665849,1
352,31,23,0.0420553811631262,1
305,10,24,0.0437062951997624,1
306,9,24,0.0688856620053692,1
306,10,24,0.0494111979274126,1
307,9,24,0.057038511177278,1
307,10,24,0.0469348484993975,1
308,9,24,0.0509089716070295,1
308,10,24,0.0496865845586941,1
309,9,24,0.0507427902056263,1
309,10,24,0.0542766428969302,1
309,11,24,0.0443077052372748,1
310,9,24,0.0445226310564405,1
310,10,24,0.0481878430735445,1
310,11,24,0.0425845491133517,1
316,11,24,0.0433908257398987,1
316,12,24,0.0440050227052585,1
317,11,24,0.0476591509159831,1
317,12,24,0.0487512140282363,1
317,13,24,0.045204409503673,1
317,39,24,0.0430962262764371,1
318,12,24,0.0503370147574448,1
318,13,24,0.0482589470431519,1
318,39,24,0.0468083741585066,1
319,12,24,0.0499386411292307,1
319,13,24,0.051142910209187,1
319,14,24,0.0423670523917794,1
319,38,24,0.0413112441398564,1
319,39,24,0.0502248844840292,1
320,13,24,0.0627743917920748,1
320,14,24,0.0503880705543426,1
320,38,24,0.0450472627561527,1
321,13,24,0.0656912062788714,1
321,14,24,0.0528704106445373,1
322,13,24,0.0517417277173536,1
322,14,24,0.0448454266419843,1
322,37,24,0.0495494481367397,1
323,36,24,0.0488044379257966,1
323,37,24,0.0575749836262443,1
324,36,24,0.0500375573427481,1
324,37,24,0.0568351638807276,1
325,36,24,0.0483883248006407,1
326,36,24,0.0457166624840166,1
331,26,24,0.0430273931354538,1
331,32,24,0.0425951679405366,1
331,33,24,0.0572143706340076,1
332,24,24,0.0441650188020285,1
332,25,24,0.0500390225678842,1
332,26,24,0.0524668898047753,1
332,27,24,0.0477535092520479,1
332,28,24,0.0430074206570316,1
332,31,24,0.0455255181879532,1
332,32,24,0.0595472956074735,1
332,34,24,0.102697489207508,1
333,23,24,0.0427711950060456,1
333,24,24,0.0492046660640536,1
333,25,24,0.0527822916804538,1
333,26,24,0.0540909107424208,1
333,27,24,0.0508918755115312,1
333,28,24,0.0486370237888546,1
333,29,24,0.0502450245712308,1
333,30,24,0.0552433508624002,1
333,31,24,0.0612497898942849,1
333,32,24,0.0727605174617205,1
333,33,24,0.103958134311425,1
333,34,24,0.128692605239065,1
333,35,24,0.116992495971117,1
334,23,24,0.0453047720187545,1
334,24,24,0.0524037283286174,1
334,25,24,0.0553622233341353,1
334,26,24,0.0574374092587695,1
334,27,24,0.0554468603609951,1
334,28,24,0.0543667839798361,1
334,29,24,0.0591398981388462,1
334,30,24,0.0670184407288209,1
334,31,24,0.0707816849582994,1
334,32,24,0.0776242701232398,1
334,33,24,0.100578568204922,1
334,34,24,0.119601548298535,1
335,23,24,0.0463044286262127,1
335,24,24,0.0549919755404507,1
335,25,24,0.0580557342661638,1
335,26,24,0.0590987691070764,1
335,27,24,0.0569612543434464,1
335,28,24,0.057677360150046,1
335,29,24,0.0648651058591098,1
335,30,24,0.0729396858401594,1
335,31,24,0.0744211798412358,1
335,32,24,0.0765401711313753,1
335,33,24,0.0839081070917589,1
335,34,24,0.0923522644313754,1
336,23,24,0.0473419864447535,1
336,24,24,0.0576977165066403,1
336,25,24,0.0608710643404039,1
336,26,24,0.0580146322680682,1
336,27,24,0.0538080141564754,1
336,28,24,0.056218882619095,1
336,29,24,0.0648243012314293,1
336,30,24,0.0728879650148789,1
336,31,24,0.0755030836987637,1
336,32,24,0.0772833917130932,1
336,33,24,0.0755257649513303,1
336,35,24,0.102025961929493,1
336,36,24,0.118628303590669,1
337,23,24,0.044992570930089,1
337,24,24,0.054299826975835,1
337,25,24,0.0594353275361025,1
337,26,24,0.0560311229390284,1
337,27,24,0.0508294763849827,1
337,28,24,0.0531384981838129,1
337,29,24,0.0615309130712096,1
337,30,24,0.069522272589922,1
337,31,24,0.0737039602472634,1
337,32,24,0.0758546458169131,1
337,33,24,0.0727238165457677,1
337,34,24,0.0819023923028166,1
337,35,24,0.108262133123846,1
337,36,24,0.124514777990385,1
337,37,24,0.105216465332838,1
338,24,24,0.0461946502824435,1
338,25,24,0.0509661802681516,1
338,26,24,0.0499714762297878,1
338,27,24,0.0474448657948934,1
338,28,24,0.0512994946562861,1
338,29,24,0.0597762762338017,1
338,30,24,0.0665856478267478,1
338,31,24,0.0694548722336658,1
338,32,24,0.0692274379334958,1
338,33,24,0.0659427005489869,1
338,35,24,0.0918470699433383,1
338,36,24,0.0979622708528462,1
339,27,24,0.0455720485478073,1
339,28,24,0.0505962406583517,1
339,29,24,0.0583472870345547,1
339,30,24,0.0620107824133536,1
339,31,24,0.0614386471415199,1
339,32,24,0.0584997893968653,1
340,27,24,0.0456436931908966,1
340,28,24,0.0497507787212025,1
340,29,24,0.0550512279473344,1
340,30,24,0.0563173987342358,1
340,31,24,0.0551943496247337,1
341,27,24,0.0433052046873017,1
341,28,24,0.0447076792589953,1
341,29,24,0.04737319411813,1
341,30,24,0.0497510814983524,1
342,27,24,0.0410288287533099,1
342,28,24,0.0424177189037702,1
343,28,24,0.0444272400340252,1
343,29,24,0.0460800923850941,1
344,28,24,0.0464503239585742,1
344,29,24,0.0488353049748794,1
344,30,24,0.047356714390401,1
345,28,24,0.0436092226828184,1
345,29,24,0.0473026254152697,1
345,30,24,0.0476955003941726,1
345,31,24,0.0465564149091967,1
346,29,24,0.0434756330789054,1
346,30,24,0.0473614452833678,1
346,31,24,0.0471280203210182,1
347,30,24,0.0469038192482701,1
348,29,24,0.0430273228479011,1
349,29,24,0.0489386384907441,1
349,30,24,0.0504958484062287,1
350,29,24,0.0518954520017333,1
350,30,24,0.0538006718105909,1
350,31,24,0.0479760991178198,1
351,29,24,0.0519788454795847,1
351,30,24,0.0550306336944081,1
351,31,24,0.0485036504543344,1
352,29,24,0.0436266161487317,1
352,30,24,0.0458956199997976,1
352,31,24,0.0423779496658076,1
305,9,25,0.0565084132686636,1
306,8,25,0.0644974046375251,1
306,9,25,0.0637782710594268,1
306,10,25,0.0482340760629835,1
307,8,25,0.0569978525314376,1
307,9,25,0.0570752445336397,1
307,10,25,0.0473070859714955,1
308,9,25,0.0519833384762195,1
308,10,25,0.0476662229251266,1
309,9,25,0.0521155818031625,1
309,10,25,0.0522197317359849,1
309,11,25,0.0425380376770695,1
310,9,25,0.0460530154571195,1
310,10,25,0.0485035801667818,1
310,11,25,0.0431174801510114,1
311,10,25,0.0428139109144847,1
311,11,25,0.0422508211100035,1
315,11,25,0.0414089952020203,1
315,12,25,0.0418394983518975,1
316,11,25,0.0436868336577807,1
316,12,25,0.0443176590360769,1
317,11,25,0.0472347817067583,1
317,12,25,0.0467679263753241,1
317,13,25,0.0418039815108701,1
317,39,25,0.0422709530871028,1
318,12,25,0.0494624591802335,1
318,13,25,0.0449450781714371,1
319,12,25,0.0522091020953303,1
319,13,25,0.0535562711765583,1
319,14,25,0.0421471280462733,1
319,38,25,0.041360121022622,1
320,12,25,0.066293581418549,1
320,13,25,0.0811329598706951,1
320,14,25,0.0578480669884928,1
320,38,25,0.046496951639655,1
321,13,25,0.0921877915581751,1
321,14,25,0.0660926184920539,1
321,37,25,0.0412842969735175,1
321,38,25,0.0495020418858449,1
322,13,25,0.0636658163819221,1
322,14,25,0.0500914192350171,1
322,37,25,0.04611924255192,1
323,36,25,0.0432398183397656,1
323,37,25,0.0509811407033963,1
324,36,25,0.0462142010355498,1
324,37,25,0.0531827739352474,1
325,36,25,0.0468018266026405,1
331,32,25,0.0414109740669641,1
332,26,25,0.0425392920395475,1
332,27,25,0.0411152932565387,1
333,23,25,0.0426679371844684,1
333,24,25,0.0466336284891498,1
333,25,25,0.0477433932512011,1
333,26,25,0.048954853288467,1
333,27,25,0.0477284003755475,1
333,28,25,0.0469991778302765,1
333,29,25,0.0476810698189401,1
333,30,25,0.0515357905948247,1
333,31,25,0.0573018137562386,1
333,32,25,0.0679073403735076,1
333,33,25,0.0912008678112162,1
333,34,25,0.112247296783979,1
334,22,25,0.0416568669598069,1
334,23,25,0.0465785879286903,1
334,24,25,0.0535365257809985,1
334,25,25,0.0545288778897159,1
334,26,25,0.0548271782631613,1
334,27,25,0.0531086259739368,1
334,28,25,0.0529014290821951,1
334,29,25,0.0558014826910522,1
334,30,25,0.0617640352564094,1
334,31,25,0.0665932172554947,1
334,32,25,0.0733440230968791,1
334,33,25,0.0899113615568351,1
334,34,25,0.104595004419249,1
335,23,25,0.0469410608377048,1
335,24,25,0.0559352669374186,1
335,25,25,0.0579895612387115,1
335,26,25,0.0574837720098442,1
335,27,25,0.0554637726275096,1
335,28,25,0.056526552863982,1
335,29,25,0.0620438662237124,1
335,30,25,0.0697175746650614,1
335,31,25,0.0724541232062508,1
335,32,25,0.0734943735787316,1
335,33,25,0.078590221145835,1
335,34,25,0.083030815706729,1
336,23,25,0.0459580083128764,1
336,24,25,0.0549768366829569,1
336,25,25,0.0584754915305878,1
336,26,25,0.0564587037487358,1
336,27,25,0.0535800175558842,1
336,28,25,0.0563334621433837,1
336,29,25,0.0642712733604466,1
336,30,25,0.0733761120680311,1
336,31,25,0.0747542779599775,1
336,32,25,0.0725076823213699,1
336,33,25,0.0703830842472229,1
337,24,25,0.0519514495542558,1
337,25,25,0.0568892258221849,1
337,26,25,0.054759448096081,1
337,27,25,0.0512045686130653,1
337,28,25,0.0539391869499242,1
337,29,25,0.0622070901411694,1
337,30,25,0.0715869964826811,1
337,31,25,0.0733968468960627,1
337,32,25,0.0717798114598037,1
337,33,25,0.0682531713527486,1
337,35,25,0.0942965803397108,1
337,36,25,0.105690798178527,1
338,25,25,0.0493858403411105,1
338,26,25,0.049097623528103,1
338,27,25,0.0477957088173118,1
338,28,25,0.0512120245003809,1
338,29,25,0.0589291544290631,1
338,30,25,0.0670837378652325,1
338,31,25,0.0697329568256221,1
338,32,25,0.0690940267518318,1
338,33,25,0.0654211560948565,1
339,28,25,0.049528475412376,1
339,29,25,0.0552516123532039,1
339,30,25,0.0596867569254001,1
339,31,25,0.0600507058730203,1
339,32,25,0.0586792551457193,1
340,27,25,0.0449489710205069,1
340,28,25,0.0478704839598614,1
340,29,25,0.0511632990061902,1
340,30,25,0.0533445921016515,1
340,31,25,0.0537661173683614,1
341,26,25,0.0414528248978322,1
341,27,25,0.0439725552626691,1
341,28,25,0.0448615765588892,1
341,29,25,0.0457026806677741,1
342,27,25,0.0414789691640505,1
342,28,25,0.0431837018390771,1
342,29,25,0.043692056563616,1
343,28,25,0.0434938510718787,1
344,28,25,0.0439479005518935,1
344,29,25,0.0476676394896492,1
344,30,25,0.0481308669020197,1
345,28,25,0.0418723523760264,1
345,29,25,0.0461121597293068,1
345,30,25,0.0481577383740711,1
345,31,25,0.0475367748800851,1
346,29,25,0.042050812472204,1
346,30,25,0.045890283552531,1
346,31,25,0.047174350631684,1
347,30,25,0.0445695209641601,1
349,29,25,0.045310873518998,1
349,30,25,0.0484097246570551,1
350,29,25,0.0485034990657595,1
350,30,25,0.0518746090390052,1
350,31,25,0.0475264263896411,1
351,29,25,0.0495067457451376,1
351,30,25,0.05260940052114,1
351,31,25,0.0472157337799902,1
352,29,25,0.0442318541544961,1
352,30,25,0.04622959400958,1
352,31,25,0.0425469155356426,1
305,8,26,0.0519658368756097,1
305,9,26,0.0463777763907701,1
306,8,26,0.0579256211927395,1
306,9,26,0.054808465553952,1
306,10,26,0.0427556046861944,1
307,8,26,0.0539289682211159,1
307,9,26,0.0534444977476408,1
307,10,26,0.0447331774204027,1
308,8,26,0.0480460081990322,1
308,9,26,0.0497349532083867,1
308,10,26,0.0442225653840767,1
309,9,26,0.0498199200460706,1
309,10,26,0.047965837135133,1
310,9,26,0.0457448748263032,1
310,10,26,0.0474720184171555,1
310,11,26,0.0420554217136374,1
311,9,26,0.0413151640226003,1
311,10,26,0.044678096309432,1
311,11,26,0.0433503644398791,1
312,10,26,0.0416038647383742,1
312,11,26,0.0422407753967094,1
314,11,26,0.0416478079756173,1
314,12,26,0.0418603413146255,1
315,11,26,0.0435491971128555,1
315,12,26,0.0452380366908811,1
316,11,26,0.0448521688403038,1
316,12,26,0.0466201549059803,1
317,11,26,0.0467024940705421,1
317,12,26,0.0465154913333501,1
318,12,26,0.0479576459318819,1
318,13,26,0.0426310118890206,1
319,12,26,0.0506916046470929,1
319,13,26,0.0523449246807237,1
319,38,26,0.0411374176154189,1
320,12,26,0.0647446978746861,1
320,13,26,0.0843931560858596,1
320,14,26,0.0572143219733942,1
321,13,26,0.102655781655113,1
321,14,26,0.0717862887281171,1
321,37,26,0.0438520607704883,1
322,13,26,0.06896773083319,1
322,14,26,0.0540512469357871,1
322,37,26,0.0455094223383964,1
324,36,26,0.0429939416671273,1
325,36,26,0.0460279228008236,1
333,22,26,0.0420421616964932,1
333,23,26,0.042781843570272,1
333,24,26,0.0448692811560066,1
333,25,26,0.0450068771504206,1
333,26,26,0.0458999832347967,1
333,27,26,0.0460979075763234,1
333,28,26,0.04629703221298,1
334,22,26,0.0431214811347776,1
334,23,26,0.048123800299611,1
334,24,26,0.0540639419491426,1
334,25,26,0.0543747643204292,1
334,26,26,0.0529710083525835,1
334,27,26,0.0519516117563004,1
334,28,26,0.0521639937067337,1
334,29,26,0.0527449960236709,1
334,30,26,0.0565057369349281,1
334,31,26,0.0615260794502813,1
334,32,26,0.0676735639733947,1
334,33,26,0.0765243510252943,1
335,22,26,0.0416296548634618,1
335,23,26,0.0484771790806596,1
335,24,26,0.0559933352693769,1
335,25,26,0.0578646061903048,1
335,26,26,0.0560636066018222,1
335,27,26,0.0548078924400612,1
335,28,26,0.055894283887489,1
335,29,26,0.0596340250407084,1
335,30,26,0.0659561308782778,1
335,31,26,0.0702514302543752,1
335,32,26,0.0715751611401619,1
335,33,26,0.0735872883165997,1
335,34,26,0.0729973540737411,1
336,23,26,0.046151780282062,1
336,24,26,0.0527776689221834,1
336,25,26,0.0567175998388187,1
336,26,26,0.0561595923650676,1
336,27,26,0.0553471655776638,1
336,28,26,0.0576671522347073,1
336,29,26,0.0643567105840597,1
336,30,26,0.0726273171427145,1
336,31,26,0.074347783416065,1
336,32,26,0.0693469321797351,1
336,33,26,0.0662274732719146,1
337,24,26,0.0501900272646498,1
337,25,26,0.0539932164509725,1
337,26,26,0.0535900794893828,1
337,27,26,0.0531763939881607,1
337,28,26,0.0558400813709265,1
337,29,26,0.0636064774672812,1
337,30,26,0.0723953033381527,1
337,31,26,0.073076876329462,1
337,32,26,0.0664079663003842,1
337,33,26,0.0628508159887443,1
338,25,26,0.0481443404851891,1
338,26,26,0.0483502289471046,1
338,27,26,0.0498879367700962,1
338,28,26,0.0528061948550896,1
338,29,26,0.0593351245196981,1
338,30,26,0.0665341486775948,1
338,31,26,0.0682340855788368,1
338,32,26,0.0639153426005633,1
339,29,26,0.0529551936532373,1
339,30,26,0.0563773107627674,1
339,31,26,0.0574455247677332,1
340,27,26,0.045704956903133,1
340,28,26,0.046822837174148,1
340,29,26,0.0476489430006444,1
340,30,26,0.0494940507317821,1
341,26,26,0.0423917855002099,1
341,27,26,0.0453382018601417,1
341,28,26,0.0452075345963985,1
341,29,26,0.0445087573748944,1
342,27,26,0.0424060836104393,1
342,28,26,0.0437400170048298,1
342,29,26,0.0437744606089956,1
343,28,26,0.0425123097294323,1
344,30,26,0.0489229805867077,1
345,29,26,0.046159138848151,1
345,30,26,0.048537155990009,1
345,31,26,0.0477554394563783,1
346,30,26,0.0449765805118612,1
349,29,26,0.0422140336862936,1
349,30,26,0.0460337512609587,1
350,29,26,0.0456183031641856,1
350,30,26,0.0490385171030594,1
350,31,26,0.0466177759426599,1
351,29,26,0.0467230018157113,1
351,30,26,0.0488418146836018,1
351,31,26,0.044797060695659,1
352,29,26,0.043406126799437,1
352,30,26,0.044762773886803,1
352,31,26,0.0412748324842164,1
305,8,27,0.0424294244846538,1
306,8,27,0.0485360313891667,1
306,9,27,0.0433287780511135,1
307,8,27,0.0491176392604037,1
307,9,27,0.0460596495207427,1
308,8,27,0.0466983308847313,1
308,9,27,0.0456602432061782,1
309,8,27,0.0450795490731256,1
309,9,27,0.0462704148574651,1
309,10,27,0.0424888553137866,1
310,8,27,0.0425348368900565,1
310,9,27,0.0450693141241129,1
310,10,27,0.0441221406915447,1
311,9,27,0.0423575473519673,1
311,10,27,0.0436615815028076,1
312,10,27,0.0426436555383953,1
312,11,27,0.0418082149842335,1
313,10,27,0.041484411042646,1
313,11,27,0.041620152527017,1
314,10,27,0.0410854156399277,1
314,11,27,0.0423391752670516,1
314,12,27,0.0418739716931047,1
315,11,27,0.0440110404011122,1
315,12,27,0.0460666944962121,1
316,11,27,0.0453185321588694,1
316,12,27,0.0479502170782403,1
316,13,27,0.04187403927729,1
317,11,27,0.0460052523617267,1
317,12,27,0.046772954638706,1
317,13,27,0.0415717865806918,1
318,12,27,0.0465557823212229,1
318,13,27,0.0425494539976402,1
319,12,27,0.048322135552984,1
319,13,27,0.0502806603604242,1
319,38,27,0.0412639784640669,1
320,12,27,0.0567068512499982,1
320,13,27,0.0733002717987221,1
320,14,27,0.0534577064008041,1
320,37,27,0.041006231305133,1
320,38,27,0.0495568661769117,1
321,13,27,0.08968946375312,1
321,14,27,0.068760631262675,1
321,15,27,0.0418914084128967,1
321,37,27,0.0443284400653064,1
322,13,27,0.0653374057725069,1
322,14,27,0.057407309966031,1
322,15,27,0.0447275192724144,1
322,37,27,0.0451009759632141,1
323,14,27,0.0446997205453414,1
323,15,27,0.0438710789602148,1
323,16,27,0.0411630022845834,1
323,37,27,0.046618938390646,1
324,15,27,0.0411931610514049,1
324,16,27,0.0419429291889889,1
325,36,27,0.0447967525117744,1
333,22,27,0.0429990483281641,1
333,23,27,0.043208556599041,1
333,24,27,0.0437527174249201,1
333,25,27,0.0432378665084959,1
333,26,27,0.0430420183531397,1
333,27,27,0.0435431686035321,1
334,22,27,0.044911959217302,1
334,23,27,0.0494981111896313,1
334,24,27,0.0531574704162935,1
334,25,27,0.0524871542468777,1
334,26,27,0.0500082041794147,1
334,27,27,0.0492226542707971,1
334,28,27,0.0503131764636269,1
334,29,27,0.050054637218042,1
334,30,27,0.0516523219503831,1
334,31,27,0.0551311448946971,1
334,32,27,0.0601149108489984,1
335,22,27,0.044442022047021,1
335,23,27,0.0504464470701856,1
335,24,27,0.0548668799169387,1
335,25,27,0.055550399332783,1
335,26,27,0.0538491053411014,1
335,27,27,0.0532484657633008,1
335,28,27,0.0549947275684737,1
335,29,27,0.0570463671629703,1
335,30,27,0.061071578507909,1
335,31,27,0.0649529815201264,1
335,32,27,0.0667676547409668,1
335,33,27,0.0663868367807107,1
336,23,27,0.0475039938468763,1
336,24,27,0.0510205612069631,1
336,25,27,0.0538135506529303,1
336,26,27,0.0551789458372338,1
336,27,27,0.0562625041556164,1
336,28,27,0.0585232546259807,1
336,29,27,0.062230966282131,1
336,30,27,0.0681837434709352,1
336,31,27,0.0703242211252462,1
336,32,27,0.065763651118714,1
337,25,27,0.0505555063182238,1
337,26,27,0.0523694496298636,1
337,27,27,0.0550379544133533,1
337,28,27,0.0581267138808703,1
337,29,27,0.0621604462398841,1
337,30,27,0.0689670874317465,1
337,31,27,0.0699064156920919,1
337,32,27,0.0625636480822917,1
338,26,27,0.0473965079586704,1
338,27,27,0.051393160930294,1
338,28,27,0.0552465624628828,1
338,29,27,0.0580110259759438,1
338,30,27,0.062980377575217,1
338,31,27,0.0639281781890241,1
338,32,27,0.0588953298960341,1
339,30,27,0.0523997651919949,1
339,31,27,0.0537178947005088,1
341,27,27,0.044225339039039,1
341,28,27,0.0456494297365398,1
342,28,27,0.0438780185043553,1
345,30,27,0.0465956786174538,1
350,29,27,0.042292628686993,1
350,30,27,0.0444397431082946,1
351,29,27,0.0424765847291144,1
351,30,27,0.0436918619211625,1
351,31,27,0.0415231746279323,1
352,30,27,0.0414383943225997,1
317,11,28,0.0451108459576266,1
319,12,28,0.0459712439997138,1
320,12,28,0.048678552919001,1
320,38,28,0.0517373320419455,1
321,13,28,0.0671206009832299,1
321,38,28,0.0554916767859116,1
322,13,28,0.0559182681631471,1
322,37,28,0.0464900202056168,1
323,13,28,0.0416523144890891,1
323,37,28,0.0480603522665076,1
325,36,28,0.0442265636644755,1
327,15,28,0.0467867201855557,1
329,16,28,0.0429739962223793,1
330,17,28,0.0445197925206604,1
331,18,28,0.0412466823193802,1
333,21,28,0.0431669625880768,1
333,22,28,0.0456336474776025,1
333,23,28,0.046309532583882,1
333,24,28,0.0453309433186469,1
333,25,28,0.0432410159315281,1
333,26,28,0.0415331500536737,1
334,21,28,0.0427557236343604,1
334,22,28,0.049217274569652,1
334,23,28,0.0540182712601248,1
334,24,28,0.0547897312178034,1
334,25,28,0.0520905540276844,1
334,26,28,0.0489725170911213,1
334,27,28,0.047975644952095,1
334,28,28,0.048444300726224,1
335,22,28,0.0490694976935734,1
335,23,28,0.0549888666679297,1
335,24,28,0.0561572296219516,1
335,25,28,0.0549339937162495,1
335,26,28,0.0533606771377386,1
335,27,28,0.0526915558567179,1
335,28,28,0.0533086751622475,1
335,29,28,0.0535138012745534,1
335,30,28,0.0557240960955848,1
335,31,28,0.058244342803597,1
335,32,28,0.0590094768815372,1
336,23,28,0.0501128785655145,1
336,24,28,0.051210288938504,1
336,25,28,0.052114251746397,1
336,26,28,0.0542614499720883,1
336,27,28,0.0561805056153483,1
336,28,28,0.0575448140459531,1
336,29,28,0.0584281231268367,1
336,30,28,0.0626069668416632,1
336,31,28,0.0639783094342678,1
336,32,28,0.0595417266706097,1
337,26,28,0.051395134388503,1
337,27,28,0.0560035161510415,1
337,28,28,0.0590762230228803,1
337,29,28,0.0597324979019706,1
337,30,28,0.0642292089635532,1
337,31,28,0.064587394331856,1
337,32,28,0.0576196648827902,1
338,27,28,0.0522005324206419,1
338,28,28,0.0567341336338959,1
338,30,28,0.0584241113296009,1
338,31,28,0.0586473500035511,1
333,24,29,0.0479794404799381,1
334,21,29,0.0461072179736821,1
334,22,29,0.0529602597637629,1
334,23,29,0.0577893714752955,1
334,24,29,0.0559226205846765,1
334,25,29,0.0515055345067765,1
335,22,29,0.0520019754911413,1
335,23,29,0.0587458877456312,1
335,24,29,0.0580147241825601,1
335,25,29,0.0549477160092207,1
335,26,29,0.0525566145691001,1
335,27,29,0.0512447190258327,1
335,28,29,0.050049106128322,1
336,23,29,0.0545076240151416,1
336,26,29,0.0516894499983866,1
336,27,29,0.0531017215735726,1
336,28,29,0.0531907813095146,1
336,29,29,0.0533117570010944,1
336,30,29,0.0552856855960346,1
336,31,29,0.0558612595512133,1
337,27,29,0.053628261850676,1
337,28,29,0.0560342318115494,1
337,30,29,0.0570948709810334,1
337,31,29,0.0571383843828584,1
333,22,30,0.0518425741352014,1
333,23,30,0.0557795691948299,1
333,24,30,0.050202522228817,1
334,21,30,0.0474579825335648,1
334,22,30,0.0538036238878022,1
334,23,30,0.0592885076520869,1
334,24,30,0.0561394901250098,1
335,22,30,0.0516417571905464,1
335,23,30,0.0605609448446437,1
336,27,30,0.049581347872173,1
332,23,31,0.0494139986160489,1
333,22,31,0.055130701542442,1
333,23,31,0.0603404798256557,1
333,24,31,0.0539392734576813,1
334,22,31,0.0537065621843278,1
334,23,31,0.0594894543583776,1
333,23,32,0.0623723469909185,1
