x,y,z,signal,cytoplasm.p
21,163,7,0.0436981796907988,1
22,163,7,0.043080260188516,1
21,162,8,0.041193590886823,1
21,163,8,0.0440786516200264,1
22,162,8,0.0421815662437043,1
22,163,8,0.0456377025287169,1
21,163,9,0.0411281342517343,1
22,162,9,0.0410389501608915,1
22,163,9,0.0434439739431715,1
24,165,10,0.0458785779716474,1
24,166,10,0.0419607660071575,1
25,165,10,0.0452730209685287,1
25,166,10,0.0421550570228857,1
21,153,11,0.0413882982211323,1
24,165,11,0.0463185239838864,1
24,166,11,0.0454054237941489,1
25,165,11,0.0478283817158243,1
25,166,11,0.047429115976365,1
24,165,12,0.041763939232799,1
24,166,12,0.0437749742488034,1
25,165,12,0.0441921606108209,1
25,166,12,0.0468599652221515,1
13,162,14,0.0430112675488555,1
14,164,14,0.0414933456719347,1
26,147,14,0.0414044075875262,1
27,146,14,0.0427399792225669,1
27,147,14,0.0459313477034829,1
28,146,14,0.0437750147993145,1
28,147,14,0.0440853830048764,1
29,146,14,0.0440460814494755,1
29,147,14,0.0424762549182904,1
13,158,15,0.0452344141785522,1
13,159,15,0.0419136300930036,1
13,162,15,0.0428345916751682,1
13,163,15,0.0440506825808067,1
14,164,15,0.041630514534298,1
14,165,15,0.0442949372329992,1
27,147,15,0.0411832667266857,1
29,146,15,0.0429514231045091,1
29,147,15,0.0420994649754746,1
30,146,15,0.0439071472881938,1
30,147,15,0.0444712914059647,1
33,154,15,0.0447532877705627,1
33,155,15,0.0416332151983402,1
34,154,15,0.0531394389556714,1
34,155,15,0.0504485340698258,1
34,156,15,0.042523098868764,1
35,156,15,0.0470322562339004,1
35,157,15,0.0418405986224332,1
36,158,15,0.0410387176712942,1
37,157,15,0.0607109763291419,1
37,158,15,0.0489768100385678,1
38,157,15,0.0672202849530916,1
38,158,15,0.0561029243774275,1
13,162,16,0.0416602596859059,1
13,163,16,0.0438735282110879,1
14,164,16,0.041438205086881,1
14,165,16,0.0429472409951264,1
15,165,16,0.042270082602797,1
18,168,16,0.0448852959045411,1
30,146,16,0.043235709221303,1
30,147,16,0.0461326566610065,1
34,154,16,0.0456142156726623,1
34,155,16,0.0438239106056521,1
35,153,16,0.0434593561037321,1
35,154,16,0.0475650629166592,1
35,155,16,0.047071173911129,1
35,156,16,0.0413483559676554,1
36,153,16,0.0438594896241299,1
36,154,16,0.0457375703275625,1
36,155,16,0.046089397375718,1
36,156,16,0.0438217506150918,1
37,154,16,0.0442450411807202,1
37,155,16,0.0464114008746107,1
37,156,16,0.0473682956163838,1
37,157,16,0.0438271276128695,1
38,154,16,0.0453006115363112,1
38,155,16,0.0492380039909489,1
38,156,16,0.0525403024501506,1
38,157,16,0.0497145752248531,1
38,158,16,0.0422907282197041,1
39,155,16,0.0473694039970217,1
39,156,16,0.0495834943458962,1
39,157,16,0.0483011357949462,1
39,158,16,0.0443842618989473,1
13,163,17,0.042212887458512,1
30,147,17,0.0413803881680918,1
38,153,17,0.0425402814720195,1
38,154,17,0.0423778955984594,1
38,155,17,0.0446884826470197,1
38,156,17,0.0444951161829456,1
39,154,17,0.0429467814226668,1
39,155,17,0.0444466664322306,1
39,156,17,0.0443169804908571,1
40,155,17,0.0426773719367279,1
40,156,17,0.041757913426843,1
13,163,18,0.0418863233787992,1
13,164,18,0.0444370478509873,1
13,163,19,0.0437030727858102,1
13,164,19,0.0472262174388046,1
38,149,19,0.047972384690999,1
42,151,19,0.0429655076487131,1
43,151,19,0.0527112255579902,1
44,150,19,0.0532010324787319,1
44,151,19,0.0547927211421585,1
45,149,19,0.0529797780764602,1
45,150,19,0.0523743805720187,1
45,151,19,0.048921358566262,1
46,150,19,0.0499291469028882,1
46,151,19,0.045072839315215,1
47,150,19,0.0492150415881717,1
47,151,19,0.0452396965584706,1
48,151,19,0.0461561705507352,1
49,152,19,0.04349680314909,1
50,153,19,0.0418833334544442,1
13,160,20,0.0409922494888905,1
13,162,20,0.0417913838187413,1
13,163,20,0.0458069117016188,1
14,164,20,0.0418924356925123,1
16,166,20,0.0495835754469185,1
37,146,20,0.0444954243668303,1
37,147,20,0.0486639006676409,1
37,148,20,0.0457486703541463,1
38,146,20,0.0479868368931708,1
38,147,20,0.0503866593965548,1
38,148,20,0.0477374296226956,1
38,149,20,0.0410838125430538,1
39,146,20,0.0449555023561685,1
39,147,20,0.0462022954054779,1
39,148,20,0.044678815405163,1
40,147,20,0.0433840375843332,1
40,148,20,0.0429507121188803,1
41,148,20,0.0415152564647896,1
43,149,20,0.0410782733432316,1
43,150,20,0.0458584162575066,1
43,151,20,0.0511533560208577,1
43,152,20,0.0471276148159067,1
44,149,20,0.0444969490660493,1
44,150,20,0.0480331293566928,1
44,151,20,0.0515137581504365,1
44,152,20,0.0473272801260453,1
45,148,20,0.0443569335578037,1
45,149,20,0.048551094552373,1
45,150,20,0.0474026391959554,1
45,151,20,0.044249217883368,1
46,148,20,0.0457371540089814,1
46,149,20,0.04990487066355,1
46,150,20,0.0474618267220212,1
46,151,20,0.0413376181923045,1
47,149,20,0.049656171675336,1
47,150,20,0.0480505931101589,1
47,151,20,0.0419816819608056,1
48,150,20,0.0470485196922365,1
48,151,20,0.0416913294875445,1
49,151,20,0.0409832689023558,1
13,160,21,0.0424658956143768,1
13,161,21,0.0436349911809667,1
13,162,21,0.0489853364593776,1
13,163,21,0.0537265184425455,1
14,161,21,0.041445293316229,1
14,162,21,0.0488790184258927,1
14,163,21,0.0519073251913963,1
14,164,21,0.0473868353100788,1
15,162,21,0.0450469491655332,1
15,163,21,0.0474886279065201,1
15,164,21,0.0427760691774851,1
16,166,21,0.043964739827488,1
43,150,21,0.0433445305730092,1
43,151,21,0.047130058660045,1
43,152,21,0.042382466992749,1
44,149,21,0.0417195877870771,1
44,150,21,0.0446070328903358,1
44,151,21,0.0474591449815509,1
44,152,21,0.0432174723047578,1
45,148,21,0.0422245254552103,1
45,149,21,0.0451718636634288,1
45,150,21,0.0443644813596113,1
45,151,21,0.0419208156435784,1
46,148,21,0.0450416370485733,1
46,149,21,0.048891929708641,1
46,150,21,0.0473744917344866,1
46,151,21,0.0411492367377337,1
47,148,21,0.0450811927205107,1
47,149,21,0.0497069571354929,1
47,150,21,0.0490073418700918,1
47,151,21,0.0421040444798665,1
48,149,21,0.0488587161366466,1
48,150,21,0.0476129341467485,1
48,151,21,0.04118164470624,1
49,150,21,0.044579063851116,1
50,151,21,0.0414551552005393,1
52,153,21,0.0417125806587514,1
53,154,21,0.041195372405946,1
13,160,22,0.0417649178518013,1
13,161,22,0.0438363298755318,1
13,162,22,0.0534871568853643,1
13,163,22,0.0622781400434286,1
14,161,22,0.043378868745846,1
14,162,22,0.0596294239093772,1
14,163,22,0.066828837352181,1
14,164,22,0.0546326709780403,1
15,162,22,0.0555186780195987,1
15,163,22,0.0616180534162908,1
15,164,22,0.0493849157894564,1
46,148,22,0.0418964610065852,1
46,149,22,0.045061863643532,1
46,150,22,0.0446406465607068,1
47,147,22,0.0415066759766315,1
47,148,22,0.0432076753012654,1
47,149,22,0.047446823032898,1
47,150,22,0.0479001182734055,1
47,151,22,0.0416574400736977,1
48,146,22,0.0410569789181461,1
48,148,22,0.0426380811947967,1
48,149,22,0.047085171947576,1
48,150,22,0.0476038454255174,1
49,149,22,0.0438577081050069,1
49,150,22,0.0437701000773639,1
50,150,22,0.0431857726185128,1
51,151,22,0.0418168252094331,1
51,152,22,0.0421440678343657,1
51,153,22,0.0426650959453209,1
52,152,22,0.0415975496721053,1
52,153,22,0.0430122623880622,1
53,154,22,0.0411157987862443,1
13,160,23,0.0421353900249808,1
13,161,23,0.0462717395074958,1
13,162,23,0.0591885100916057,1
14,161,23,0.0476634763038384,1
14,162,23,0.0682433040617036,1
14,163,23,0.0801595529607842,1
14,164,23,0.0627482664494284,1
15,161,23,0.0433699395232921,1
15,162,23,0.0653001047089892,1
15,163,23,0.076596671510236,1
15,164,23,0.0582187905748415,1
15,165,23,0.0426904183878466,1
16,163,23,0.0468372299022367,1
16,164,23,0.0417829412023211,1
46,149,23,0.0416438934996082,1
46,150,23,0.0420832339575474,1
47,146,23,0.0429266440388326,1
47,147,23,0.0429876374143281,1
47,148,23,0.043286878559632,1
47,149,23,0.0451109919394667,1
47,150,23,0.0459469353199667,1
47,151,23,0.0411588147684659,1
48,146,23,0.044845510446374,1
48,147,23,0.0443860488248051,1
48,148,23,0.0437982961994461,1
48,149,23,0.0456638873454463,1
48,150,23,0.0464987358621454,1
49,146,23,0.0420798033843046,1
49,147,23,0.042250329097135,1
49,148,23,0.0420551946307749,1
49,149,23,0.043067489480873,1
49,150,23,0.0430083641322576,1
50,149,23,0.0438079904749769,1
50,150,23,0.0427354294552165,1
51,150,23,0.044625745599545,1
51,151,23,0.0420342300165135,1
51,152,23,0.0431323135279879,1
51,153,23,0.0434392836007158,1
52,152,23,0.0422439518534157,1
52,153,23,0.0430402963080998,1
53,153,23,0.0425066948353225,1
13,160,24,0.0415008096693526,1
13,161,24,0.0472285855886554,1
13,162,24,0.064161597744639,1
14,161,24,0.0484838293644872,1
14,162,24,0.068134763860208,1
14,163,24,0.0824517598143267,1
15,144,24,0.046632395753611,1
15,161,24,0.0449426343272988,1
15,162,24,0.0660873361121355,1
15,163,24,0.0790672086983204,1
15,164,24,0.0612907783509493,1
16,162,24,0.0415968846437226,1
16,163,24,0.0499940926015365,1
16,164,24,0.0453518322386209,1
17,165,24,0.0413221278970475,1
37,136,24,0.041007339685771,1
47,146,24,0.043039004098478,1
47,147,24,0.042921069695234,1
47,148,24,0.0417066359538177,1
47,149,24,0.0417882019553002,1
47,150,24,0.042060217487422,1
48,146,24,0.0442497612602173,1
48,147,24,0.0442289534412656,1
48,148,24,0.0436552177759254,1
48,149,24,0.0438845255097102,1
48,150,24,0.0433838807890234,1
49,146,24,0.0424094898533754,1
49,147,24,0.0427950927739465,1
49,148,24,0.0424682096968794,1
49,149,24,0.042399976703461,1
49,150,24,0.0416902211069065,1
50,146,24,0.044856156307233,1
50,147,24,0.0451464547131459,1
50,148,24,0.0435589427523671,1
50,149,24,0.0431722774084041,1
50,150,24,0.0427296064018163,1
50,151,24,0.0415006907211866,1
51,150,24,0.0436631791929466,1
51,151,24,0.0432282452238851,1
51,152,24,0.0437521713447034,1
51,153,24,0.0428178983814139,1
52,152,24,0.0421653271156748,1
52,153,24,0.0425636574900103,1
13,160,25,0.044818503805952,1
13,161,25,0.0539106988641618,1
14,161,25,0.0491388661013039,1
14,162,25,0.063211131610566,1
14,163,25,0.076690635154659,1
15,144,25,0.0448475623022379,1
15,161,25,0.045708336112395,1
15,162,25,0.0593419748527141,1
15,163,25,0.0676970075755708,1
15,164,25,0.0575068533607874,1
16,162,25,0.041307743279061,1
16,163,25,0.0478381300587033,1
16,164,25,0.0460997674931012,1
16,165,25,0.0429359301058846,1
17,164,25,0.0422351010285167,1
17,165,25,0.0447479134761525,1
32,133,25,0.0420892165096248,1
37,135,25,0.0435176812555943,1
37,136,25,0.0419429994765416,1
38,136,25,0.0430717391744409,1
39,136,25,0.0424078759430319,1
44,138,25,0.0453113249813554,1
44,139,25,0.044896647344294,1
44,140,25,0.0413657061796903,1
45,138,25,0.0472346249114485,1
45,139,25,0.0445312953489883,1
46,139,25,0.0415350478175953,1
49,145,25,0.0413225874695071,1
49,146,25,0.0421862619928948,1
49,147,25,0.0418922572702633,1
49,148,25,0.0411843832174259,1
50,145,25,0.0459789702237705,1
50,146,25,0.04708699401721,1
50,147,25,0.0458606816793959,1
50,148,25,0.0436578724827216,1
50,149,25,0.0420154470197515,1
50,150,25,0.0421140523460168,1
50,151,25,0.0420904843889399,1
51,146,25,0.0512397286095946,1
51,147,25,0.0485023149908341,1
51,148,25,0.0452387476765098,1
51,150,25,0.0432172965858762,1
51,151,25,0.0442241657775832,1
51,152,25,0.0429170578979982,1
52,151,25,0.0432431299648424,1
52,152,25,0.0419887107160706,1
13,153,26,0.0426163244938842,1
13,154,26,0.0502675219948135,1
13,155,26,0.0577330008580704,1
13,156,26,0.0590227774491925,1
13,157,26,0.0540867962172234,1
13,158,26,0.0501568785734732,1
13,159,26,0.0484453225991048,1
13,160,26,0.0535865597050155,1
13,161,26,0.0690649655521786,1
14,145,26,0.0461522777016654,1
14,154,26,0.0410005434201032,1
14,155,26,0.0454757924478209,1
14,156,26,0.0484050586449062,1
14,157,26,0.0472281746768092,1
14,158,26,0.0447226640245467,1
14,159,26,0.0433941049245665,1
14,160,26,0.0470129974444743,1
14,161,26,0.0550280654953689,1
14,162,26,0.0668224411848898,1
15,144,26,0.0465908990638736,1
15,145,26,0.0436411845957021,1
15,160,26,0.0422809204027421,1
15,161,26,0.0465674770886368,1
15,162,26,0.0524305889871992,1
15,163,26,0.0566976814277448,1
16,144,26,0.0423990710753788,1
16,163,26,0.0439632043147993,1
16,164,26,0.0452078292634461,1
17,164,26,0.0455829052713242,1
17,165,26,0.045610485025637,1
37,135,26,0.0449744205213009,1
37,136,26,0.0424892256751217,1
38,135,26,0.0495901770701328,1
38,136,26,0.0450719472039698,1
39,135,26,0.0486521085790002,1
39,136,26,0.0444709859254474,1
40,134,26,0.0456181625890803,1
40,135,26,0.0456077978784319,1
40,136,26,0.0437861391562051,1
40,137,26,0.0417139918165392,1
41,135,26,0.044150198941889,1
41,137,26,0.0452424107393498,1
42,138,26,0.0426600866055109,1
43,138,26,0.043095407156112,1
43,139,26,0.0413084110108111,1
44,137,26,0.0461448758816979,1
44,138,26,0.0452072399293508,1
44,139,26,0.0458339237487756,1
44,140,26,0.0416920350664384,1
45,138,26,0.048151493595355,1
45,139,26,0.0466668690948183,1
46,139,26,0.0441511964844632,1
49,145,26,0.043210589531333,1
49,146,26,0.0430357654643213,1
49,147,26,0.0417482299647818,1
50,145,26,0.0490278604287307,1
50,146,26,0.0501035573546862,1
50,147,26,0.0476372536399653,1
50,148,26,0.0456235044430817,1
50,149,26,0.0425466235719624,1
50,150,26,0.0416504194285349,1
51,146,26,0.055259235849299,1
51,147,26,0.0514214489668681,1
51,148,26,0.0482220785184197,1
51,149,26,0.0447086308443235,1
51,150,26,0.043663511707138,1
51,151,26,0.0437781074516311,1
51,152,26,0.0411484824982264,1
52,150,26,0.0435893637458274,1
52,151,26,0.0432381341418694,1
13,149,27,0.0445328092347377,1
13,150,27,0.0442505614569706,1
13,151,27,0.0444712400419839,1
13,152,27,0.0451107324161954,1
13,153,27,0.0506039993228173,1
13,154,27,0.0764029319814593,1
13,155,27,0.112232125486076,1
13,156,27,0.116032486950089,1
13,157,27,0.0870673163139702,1
13,158,27,0.062142447219671,1
13,159,27,0.0559400194573247,1
13,160,27,0.0637123143013672,1
14,145,27,0.0463276289253219,1
14,154,27,0.0506227336589658,1
14,155,27,0.0679460796284872,1
14,156,27,0.0732657497969014,1
14,157,27,0.0624244679145757,1
14,158,27,0.0508524441944947,1
14,159,27,0.0487614597907187,1
14,160,27,0.0531027596666579,1
14,161,27,0.0616573279380175,1
15,143,27,0.0476357721946248,1
15,144,27,0.05200724705759,1
15,145,27,0.0481032493005632,1
15,159,27,0.0415973685464889,1
15,160,27,0.0442743673103795,1
15,161,27,0.0460096101899909,1
15,162,27,0.0489964472994311,1
15,163,27,0.0522232353001477,1
16,142,27,0.0420260225930579,1
16,143,27,0.0447370973031466,1
16,144,27,0.0478423797522712,1
16,145,27,0.0445849490819667,1
16,163,27,0.0415912697496128,1
16,164,27,0.0430321699856665,1
17,163,27,0.0410117056241375,1
17,164,27,0.0439868749998378,1
17,165,27,0.0421718962984801,1
37,134,27,0.0442704879781468,1
37,135,27,0.0462127736575575,1
37,136,27,0.0433653924593091,1
38,134,27,0.0502709390512193,1
38,135,27,0.0522551188153766,1
38,136,27,0.0473514482306871,1
39,134,27,0.0509467052093328,1
39,135,27,0.0512877836686677,1
39,136,27,0.0466435390340734,1
40,133,27,0.0518312740594293,1
40,134,27,0.050408394470528,1
40,135,27,0.0489915866448286,1
40,136,27,0.0456506084047303,1
40,137,27,0.0412555547712186,1
41,133,27,0.0497594294969133,1
41,134,27,0.0484419542033124,1
41,135,27,0.0475032909713498,1
41,136,27,0.0462499179257654,1
41,137,27,0.0440842502939317,1
42,135,27,0.0471649753535075,1
42,137,27,0.0460196613100198,1
42,138,27,0.0418562484163674,1
43,137,27,0.0451092509708549,1
43,138,27,0.0434984413897402,1
43,139,27,0.0411825746646289,1
44,137,27,0.0450178663389407,1
44,138,27,0.0448122644339707,1
44,139,27,0.0445886770256246,1
45,138,27,0.047072520188099,1
45,139,27,0.045221575886724,1
46,139,27,0.0457784182091216,1
49,145,27,0.0443806420899859,1
49,146,27,0.0436072303010375,1
49,147,27,0.0412296186642908,1
50,145,27,0.050286586141786,1
50,146,27,0.0509895157356313,1
50,147,27,0.0481600794902479,1
50,148,27,0.0456503218477849,1
50,149,27,0.0418873128112711,1
51,146,27,0.0553515450328673,1
51,147,27,0.0520501062445019,1
51,148,27,0.0483830207937831,1
51,149,27,0.0443726806729646,1
51,150,27,0.0420507286678143,1
51,151,27,0.0412067319558011,1
52,147,27,0.0550092879053418,1
52,148,27,0.04982920881649,1
52,149,27,0.0450418965718446,1
52,150,27,0.0423672335173959,1
52,151,27,0.0415770797740798,1
12,155,28,0.184671482899536,1
13,150,28,0.0491878024581525,1
13,151,28,0.0501237028486226,1
13,152,28,0.050950316908192,1
13,153,28,0.0607160370329327,1
13,154,28,0.106324554007096,1
13,155,28,0.178215690136827,1
13,156,28,0.187027608172111,1
13,157,28,0.127453684395653,1
14,145,28,0.046059671147682,1
14,146,28,0.0411702608260781,1
14,153,28,0.0439665186432435,1
14,154,28,0.06387342418551,1
14,155,28,0.098689617261135,1
14,156,28,0.107378380690707,1
14,157,28,0.0805325960363703,1
14,158,28,0.0565444707831729,1
14,159,28,0.0530276222728754,1
14,160,28,0.0594399016337595,1
15,143,28,0.0482495663582406,1
15,144,28,0.0549339396489014,1
15,145,28,0.0495452308835807,1
15,156,28,0.0438575377928601,1
15,157,28,0.0416173950922592,1
15,159,28,0.0435081302585362,1
15,160,28,0.0460197640379814,1
15,161,28,0.0467374215774741,1
15,162,28,0.0505358690573604,1
16,142,28,0.0410415778340136,1
16,143,28,0.0451473116806147,1
16,144,28,0.0492158525983946,1
16,145,28,0.044054261839257,1
16,163,28,0.0420283420822953,1
17,141,28,0.0428608819232266,1
17,164,28,0.0414821834679005,1
26,134,28,0.046179770948221,1
26,135,28,0.0455684098152739,1
26,136,28,0.0421479147261895,1
27,134,28,0.0449246001633093,1
27,135,28,0.0446111555256354,1
37,133,28,0.0427220234562323,1
37,134,28,0.0425470858477894,1
37,135,28,0.0438486193837758,1
38,134,28,0.0493368877640574,1
38,135,28,0.0499833169790419,1
38,136,28,0.0457895560828492,1
39,133,28,0.0555415214742098,1
39,134,28,0.0548913075448519,1
39,135,28,0.0517029992758436,1
39,136,28,0.046430443394644,1
40,132,28,0.0544659056492766,1
40,133,28,0.0603794840106415,1
40,134,28,0.0582728579230335,1
40,135,28,0.0522357789249283,1
40,136,28,0.0466324984815726,1
41,132,28,0.051481923295821,1
41,133,28,0.0557899717526221,1
41,134,28,0.0547767550542373,1
41,135,28,0.0509593137149312,1
41,136,28,0.0473366932513655,1
41,137,28,0.0413789526799973,1
42,133,28,0.0489385303560478,1
42,134,28,0.0498788967094785,1
42,135,28,0.0490247894033534,1
42,136,28,0.0466526710091831,1
42,137,28,0.0428446698288712,1
43,137,28,0.0435842435679536,1
43,138,28,0.0435587913637922,1
44,137,28,0.0441549082079166,1
44,138,28,0.0451400288088133,1
44,139,28,0.0434638382868973,1
45,138,28,0.0450929577754772,1
45,139,28,0.0425760659464204,1
46,140,28,0.0411762541916252,1
49,145,28,0.0435602403687237,1
49,146,28,0.0434892688641194,1
49,147,28,0.0415857332531579,1
50,145,28,0.0501559486150843,1
50,146,28,0.051608603092635,1
50,147,28,0.049533141424525,1
50,148,28,0.0458499925646583,1
50,149,28,0.0414234392940898,1
51,146,28,0.0555064155450287,1
51,147,28,0.0526126553755012,1
51,148,28,0.0479565537714484,1
51,149,28,0.0436415062964238,1
52,147,28,0.0549732682379763,1
52,148,28,0.0482226191919016,1
52,149,28,0.0436644443688943,1
12,156,29,0.231279980885246,1
13,151,29,0.0567571771376953,1
13,152,29,0.0591877801824051,1
13,153,29,0.0749418592177951,1
13,154,29,0.134969943312332,1
13,155,29,0.229053465859757,1
13,156,29,0.241343190373209,1
13,157,29,0.159213309702874,1
14,145,29,0.0460593305233884,1
14,146,29,0.0421792602713039,1
14,151,29,0.0420422103571066,1
14,152,29,0.0436851440531497,1
14,153,29,0.0514954833867475,1
14,154,29,0.0790963131518522,1
14,155,29,0.125788961558288,1
14,156,29,0.135667963590961,1
14,157,29,0.0956609158039897,1
14,158,29,0.0633028730869783,1
14,159,29,0.0588262588587187,1
15,143,29,0.0477261998344761,1
15,144,29,0.0531504416610285,1
15,145,29,0.0474338630895363,1
15,154,29,0.0412809637215014,1
15,155,29,0.0495319897900085,1
15,156,29,0.0532175933074831,1
15,157,29,0.0471629207942762,1
15,158,29,0.0440195533050851,1
15,159,29,0.0468790185556544,1
15,160,29,0.0504392831465501,1
16,143,29,0.0448426610971243,1
16,144,29,0.0477465399708659,1
16,145,29,0.0417654396017114,1
16,162,29,0.0412204623588745,1
17,141,29,0.0444457635075158,1
17,142,29,0.0414134016908979,1
18,140,29,0.0428757801810209,1
18,141,29,0.0420651538363119,1
25,134,29,0.0433660277506504,1
25,135,29,0.0437869123192842,1
25,136,29,0.0421710447377461,1
26,133,29,0.0418519392487165,1
26,134,29,0.0490105102166959,1
26,135,29,0.0492730774797211,1
26,136,29,0.0456936568273609,1
26,137,29,0.0412970595710582,1
27,134,29,0.0468013237763024,1
27,135,29,0.0482873864683009,1
27,136,29,0.0433508537493803,1
28,134,29,0.0416161893903945,1
28,135,29,0.0435021828502351,1
31,135,29,0.0434186055433998,1
32,134,29,0.0411281666921432,1
32,135,29,0.0435709321868287,1
37,133,29,0.0434120066235529,1
37,134,29,0.0410630912318592,1
37,135,29,0.0412588690996627,1
38,133,29,0.0493999789526627,1
38,134,29,0.0468147757325326,1
38,135,29,0.0457627440848807,1
38,136,29,0.0426417685879434,1
39,133,29,0.0609898665245863,1
39,134,29,0.0576526081180436,1
39,135,29,0.05113115596769,1
39,136,29,0.044945321474504,1
40,132,29,0.0577729566283844,1
40,133,29,0.0670704967716603,1
40,134,29,0.0643868315037375,1
40,135,29,0.0550196472092554,1
40,136,29,0.0461520722457422,1
41,132,29,0.0534118410693328,1
41,133,29,0.0609772526122531,1
41,134,29,0.0603945796142567,1
41,135,29,0.0542402663850666,1
41,136,29,0.0467326528373636,1
42,133,29,0.0529633470093447,1
42,134,29,0.0535848295498733,1
42,135,29,0.0505890659212466,1
42,136,29,0.0454157560643884,1
43,134,29,0.0494823884047771,1
43,137,29,0.0424452581075719,1
43,138,29,0.0423428896938724,1
44,137,29,0.0454497914600753,1
44,138,29,0.0461225082197508,1
44,139,29,0.0421736399704593,1
45,138,29,0.0462968159435873,1
45,139,29,0.0428302122199647,1
46,140,29,0.0431773272987252,1
47,141,29,0.045976174941869,1
47,142,29,0.041169771516577,1
48,143,29,0.0432380395240101,1
48,144,29,0.0414162753704543,1
49,144,29,0.04350136372991,1
49,145,29,0.043207540132895,1
49,146,29,0.0421734615482103,1
49,147,29,0.041273126659381,1
50,145,29,0.0501102833328013,1
50,146,29,0.0496931591482342,1
50,147,29,0.0478604220263629,1
50,148,29,0.042973314973792,1
51,146,29,0.0555813582963578,1
51,147,29,0.0515827859338733,1
51,148,29,0.0456852872018607,1
51,149,29,0.0420476846761111,1
52,148,29,0.0457931083076254,1
52,149,29,0.0426635739494693,1
12,156,30,0.228653259348439,1
13,155,30,0.229061921993014,1
13,156,30,0.241794933880824,1
13,157,30,0.162283242919751,1
14,149,30,0.0410379039577039,1
14,150,30,0.042860884626594,1
14,151,30,0.0453388236346459,1
14,152,30,0.0477340774471076,1
14,153,30,0.0576440979174382,1
14,154,30,0.0864241743937558,1
14,155,30,0.132172639291979,1
14,156,30,0.139578871155087,1
14,157,30,0.0977161346569366,1
15,143,30,0.0446045079451752,1
15,144,30,0.0470221240128492,1
15,145,30,0.0436920835972901,1
15,154,30,0.0480008133026784,1
15,155,30,0.0577478801922929,1
15,156,30,0.0595614071853516,1
15,157,30,0.050213735796832,1
15,158,30,0.0444534681046332,1
15,159,30,0.0462234087049469,1
16,143,30,0.0427876098529567,1
16,144,30,0.0434300083471335,1
16,161,30,0.0423128390617472,1
17,141,30,0.0427351564151082,1
18,140,30,0.0411118491664588,1
21,165,30,0.0415167865707434,1
25,134,30,0.0427112532404724,1
25,135,30,0.0434217063058186,1
25,136,30,0.0414352503063023,1
26,134,30,0.0470558133775077,1
26,135,30,0.0484748541846873,1
26,136,30,0.0453226304638624,1
27,134,30,0.0453680956969571,1
27,135,30,0.0483936828748465,1
27,136,30,0.044303898895962,1
28,134,30,0.0419630341324141,1
28,135,30,0.0457870311376886,1
29,134,30,0.0413551224962817,1
29,135,30,0.0460514745376961,1
30,134,30,0.0411121032829953,1
30,135,30,0.0477865606219977,1
30,136,30,0.0411483311096514,1
31,134,30,0.0413225252920567,1
31,135,30,0.0512498554239109,1
31,136,30,0.0463928125203023,1
32,134,30,0.0413694773772267,1
32,135,30,0.0501601604615085,1
32,136,30,0.0456137561002026,1
33,135,30,0.0416783533239784,1
38,133,30,0.0461815930178551,1
38,134,30,0.0433067104629489,1
38,135,30,0.0425159322417612,1
39,133,30,0.0600832111627534,1
39,134,30,0.0577258044940261,1
39,135,30,0.050110710464852,1
39,136,30,0.0418808652799992,1
40,132,30,0.0556602101169611,1
40,133,30,0.0677394936977801,1
40,134,30,0.0684167034540904,1
40,135,30,0.0580936571041857,1
40,136,30,0.0444130906090034,1
41,132,30,0.0507577776745452,1
41,133,30,0.0618865140202689,1
41,134,30,0.0644672837178473,1
41,135,30,0.057252607062649,1
41,136,30,0.0450330160099041,1
42,133,30,0.0556442386223051,1
42,134,30,0.0567095600241426,1
42,135,30,0.0515135743214526,1
42,136,30,0.043517421732323,1
43,134,30,0.0504491179971863,1
43,136,30,0.0428694894450588,1
43,137,30,0.0413042775620419,1
44,137,30,0.0472669463721977,1
44,138,30,0.0476361614795318,1
44,139,30,0.0431335003062807,1
45,138,30,0.0517261184739305,1
45,139,30,0.0488810297312455,1
45,140,30,0.0417851065996162,1
46,139,30,0.0528850034218143,1
46,140,30,0.0475647006654263,1
46,141,30,0.0413550792424031,1
47,141,30,0.0547676068589232,1
47,142,30,0.0420431970862111,1
48,142,30,0.0487858603849578,1
48,143,30,0.0442834776585499,1
48,144,30,0.0412643515287694,1
49,144,30,0.0430257738183754,1
50,146,30,0.0458483110701295,1
50,147,30,0.0441077560735582,1
51,148,30,0.0444960082941907,1
51,149,30,0.0416009802453481,1
13,156,31,0.199679324395179,1
14,151,31,0.0496397622351597,1
14,152,31,0.0534237196657306,1
14,153,31,0.0630785692862686,1
14,154,31,0.0871250440216349,1
14,155,31,0.120358372225058,1
15,145,31,0.0420681383539321,1
15,153,31,0.0441476983270351,1
15,154,31,0.05263213043432,1
15,155,31,0.0604946744959647,1
15,156,31,0.060603014648272,1
15,157,31,0.050755360864081,1
16,143,31,0.0411262364878127,1
20,164,31,0.0416087362064463,1
20,165,31,0.0414752195934533,1
21,164,31,0.0416881827678797,1
21,165,31,0.043423577036066,1
23,135,31,0.0413739974075355,1
25,135,31,0.0412787253332863,1
26,134,31,0.0431360874288917,1
26,135,31,0.044824140327001,1
26,136,31,0.0434281268034164,1
27,134,31,0.0433488073002512,1
27,135,31,0.046783422077316,1
27,136,31,0.044833083066392,1
28,134,31,0.0455212144270371,1
28,135,31,0.0495078865661844,1
28,136,31,0.044117258410003,1
29,134,31,0.0496632328710099,1
29,135,31,0.0538305278002626,1
29,136,31,0.0450631720733582,1
30,134,31,0.0473488638114435,1
30,135,31,0.0537442687529569,1
30,136,31,0.0476148697578137,1
31,134,31,0.0414001551905909,1
31,135,31,0.0521640639942863,1
31,136,31,0.0508036375992817,1
32,135,31,0.0500263545882027,1
32,136,31,0.04872478590844,1
38,133,31,0.0417591164253403,1
39,133,31,0.0528219771140268,1
39,134,31,0.0530318233058299,1
39,135,31,0.0467283598899172,1
40,133,31,0.0600423362475201,1
40,134,31,0.0641112123828588,1
40,135,31,0.0552371168971536,1
41,133,31,0.0570869014539099,1
41,134,31,0.0617200514686552,1
41,135,31,0.054453334990822,1
41,136,31,0.0414702751344612,1
42,133,31,0.0535831426486097,1
42,134,31,0.0555719667979768,1
42,135,31,0.049603001845124,1
42,136,31,0.0412854269810947,1
43,134,31,0.0509131888601885,1
43,136,31,0.0418409825006053,1
44,137,31,0.0476164052705024,1
44,138,31,0.0458685214448837,1
44,139,31,0.0420729800849627,1
45,138,31,0.0543713202303494,1
45,139,31,0.0529929867296236,1
45,140,31,0.0432484474885371,1
46,138,31,0.0543778299390717,1
46,139,31,0.0573265820084454,1
46,140,31,0.0522218403625644,1
46,141,31,0.0422506345776523,1
47,139,31,0.0717762213878837,1
47,140,31,0.0781879979224297,1
47,141,31,0.0593681164155649,1
47,142,31,0.0433204381626548,1
48,142,31,0.0508882205587934,1
48,143,31,0.0434234661980022,1
49,144,31,0.0427784859879493,1
50,146,31,0.0441524832873501,1
50,147,31,0.0413244636064894,1
14,152,32,0.0592465513898899,1
15,146,32,0.0413554469003708,1
15,152,32,0.0430397799649246,1
15,153,32,0.0475046534685242,1
15,154,32,0.0547572043011311,1
15,155,32,0.0590035402867057,1
15,156,32,0.0570194578437751,1
26,134,32,0.0417436666805944,1
26,135,32,0.0437308039286979,1
26,136,32,0.0433360230757712,1
27,134,32,0.043867007688896,1
27,135,32,0.0486542496459886,1
27,136,32,0.0485162805868721,1
28,133,32,0.0429357192432267,1
28,134,32,0.049019058264445,1
28,135,32,0.0533632183031036,1
28,136,32,0.050380463278452,1
29,133,32,0.04668266757396,1
29,134,32,0.0557416355433384,1
29,135,32,0.0576503048490107,1
29,136,32,0.0502842288054049,1
30,133,32,0.0426958359361355,1
30,134,32,0.0519894643067697,1
30,135,32,0.0551536531317495,1
30,136,32,0.0506377806019677,1
31,134,32,0.042110278445113,1
31,135,32,0.0503343492371789,1
31,136,32,0.0508260106679636,1
32,135,32,0.0454962082784982,1
32,136,32,0.0455156346767036,1
39,133,32,0.0424004551994925,1
39,134,32,0.0449477004378244,1
39,135,32,0.0423680958915996,1
40,133,32,0.049081830455696,1
40,134,32,0.0543679626480267,1
40,135,32,0.0497819431407005,1
41,133,32,0.0504369149966993,1
41,134,32,0.055204449405376,1
41,135,32,0.0500346647396199,1
42,134,32,0.0531684082408327,1
42,135,32,0.0477090496716295,1
43,135,32,0.0465059484463942,1
44,136,32,0.0450423020769561,1
44,137,32,0.0453984761399062,1
44,138,32,0.0419530100460593,1
45,137,32,0.0521722876379464,1
45,138,32,0.0524025821008357,1
45,139,32,0.0517682910055203,1
45,140,32,0.0419395797167684,1
46,130,32,0.0439423910891128,1
46,138,32,0.0520247594716694,1
46,139,32,0.057335535561306,1
46,140,32,0.053363715722707,1
46,141,32,0.0413564498496798,1
47,130,32,0.044566847333792,1
47,131,32,0.0438243052972939,1
47,139,32,0.070702925052188,1
47,140,32,0.0816083740633481,1
47,141,32,0.057949410825944,1
47,142,32,0.0437627928752557,1
48,140,32,0.110407298417245,1
48,141,32,0.0779364171445571,1
48,142,32,0.0520789782084365,1
48,143,32,0.0434101575202448,1
49,143,32,0.0463021632043234,1
15,148,33,0.0433065563710065,1
15,149,33,0.043259634022878,1
15,150,33,0.0448687675161988,1
15,151,33,0.0458964201965508,1
15,152,33,0.0478476242850458,1
15,153,33,0.0508471996617201,1
26,135,33,0.0422027714576652,1
26,136,33,0.0426370782454877,1
27,133,33,0.0427378787060896,1
27,134,33,0.0453363365366291,1
27,135,33,0.048708517043369,1
27,136,33,0.0491634991851402,1
27,137,33,0.0425901234569503,1
28,132,33,0.0412915230746033,1
28,133,33,0.0471343732344307,1
28,134,33,0.0514003627010732,1
28,135,33,0.05386335208735,1
28,136,33,0.0520435965357796,1
28,137,33,0.0421334354903437,1
29,132,33,0.041731671839398,1
29,133,33,0.0516159075913758,1
29,134,33,0.0571448129905585,1
29,135,33,0.0573050091365168,1
29,136,33,0.051806489587018,1
30,133,33,0.0468174520662681,1
30,134,33,0.0518408169463852,1
30,135,33,0.0524500964864269,1
30,136,33,0.0486189869214978,1
31,134,33,0.0434296677228399,1
31,135,33,0.0469002129561457,1
31,136,33,0.0453909391515682,1
40,134,33,0.0438854635782013,1
40,135,33,0.0435111931738113,1
41,133,33,0.0419375170474349,1
41,134,33,0.0460264359487483,1
41,135,33,0.0446716406680579,1
42,134,33,0.0468496653923209,1
42,135,33,0.044591848075596,1
43,135,33,0.046641787251992,1
44,136,33,0.0441543377973931,1
44,137,33,0.0422378070992937,1
45,130,33,0.0415655877592216,1
45,137,33,0.0502611312342572,1
45,138,33,0.0479948550809077,1
45,139,33,0.04531829155917,1
46,129,33,0.0437892480287261,1
46,130,33,0.0452284235163725,1
46,131,33,0.0438471298283331,1
46,138,33,0.0516397783256026,1
46,139,33,0.0551709654966406,1
46,140,33,0.0517687559847148,1
46,141,33,0.0415118853656298,1
47,129,33,0.0437097663235163,1
47,130,33,0.045475100385764,1
47,131,33,0.0456494027028657,1
47,132,33,0.0450459083690805,1
47,139,33,0.0649071810694729,1
47,140,33,0.0721508107896281,1
47,141,33,0.0548919996069087,1
47,142,33,0.0437526985013483,1
48,130,33,0.0448657532615371,1
48,131,33,0.0452837181933685,1
48,140,33,0.089123167754891,1
48,141,33,0.0684621308400414,1
48,142,33,0.0497120502796926,1
48,143,33,0.0427499465382061,1
49,127,33,0.0461847559577244,1
49,143,33,0.044506154032079,1
15,150,34,0.0488486487964132,1
15,151,34,0.0492290179976793,1
25,134,34,0.0411077562682007,1
26,133,34,0.0410700605130412,1
26,134,34,0.0415557096547069,1
27,132,34,0.0437846847445387,1
27,133,34,0.0492533050504872,1
27,134,34,0.0526099195676827,1
27,135,34,0.0508743090301036,1
27,136,34,0.0476953598190673,1
27,137,34,0.042814381300414,1
28,132,34,0.0465450877997505,1
28,133,34,0.0581963039647284,1
28,134,34,0.0633304582480259,1
28,135,34,0.059830067838518,1
28,136,34,0.0518808321907821,1
28,137,34,0.0423739513854088,1
29,132,34,0.0467216501320065,1
29,133,34,0.058985946771604,1
29,134,34,0.063746593000121,1
29,135,34,0.0620583941201716,1
29,136,34,0.0536530138826784,1
29,137,34,0.0410181207150005,1
30,132,34,0.0419005430913737,1
30,133,34,0.0499740282086225,1
30,134,34,0.0537082220519173,1
30,135,34,0.0560467700295952,1
30,136,34,0.0504369149966993,1
31,133,34,0.0417301309199745,1
31,134,34,0.0466848302678877,1
31,135,34,0.0501656861444937,1
31,136,34,0.0454221630451492,1
40,135,34,0.0412019875459973,1
41,135,34,0.0421898304378754,1
42,135,34,0.0413017039562679,1
43,135,34,0.045248279749996,1
44,135,34,0.0507430226952236,1
44,136,34,0.0444026285771282,1
45,137,34,0.0473281073564726,1
45,138,34,0.0442024144834055,1
46,129,34,0.043306856444789,1
46,130,34,0.0455384781313148,1
46,131,34,0.0442654759349694,1
46,132,34,0.0424815535184132,1
46,138,34,0.0513637915467561,1
46,139,34,0.0533083345379539,1
46,140,34,0.0495593911220722,1
47,129,34,0.0430557947134591,1
47,130,34,0.0462214947208209,1
47,131,34,0.0466591969381098,1
47,132,34,0.0448829088311184,1
47,139,34,0.0601168464600636,1
47,140,34,0.0626511020179924,1
47,141,34,0.0517326714365314,1
47,142,34,0.0426229828878141,1
48,127,34,0.0448161248426316,1
48,130,34,0.0459296662089541,1
48,131,34,0.0470575327191802,1
48,140,34,0.0674419016065961,1
48,141,34,0.0581413715389652,1
48,142,34,0.0468638148173428,1
48,143,34,0.0415589104417199,1
49,126,34,0.0460656455896572,1
49,127,34,0.0493932962284262,1
49,128,34,0.0447726492879503,1
49,143,34,0.0414069136091149,1
50,126,34,0.0441154660774104,1
50,127,34,0.0469041058052155,1
16,150,35,0.0409889297537116,1
16,151,35,0.0412517457265384,1
16,152,35,0.0413193542420852,1
24,133,35,0.0429241380172439,1
24,134,35,0.0422261772126976,1
25,133,35,0.043757983584634,1
25,134,35,0.0439260438263869,1
26,133,35,0.0431861186495412,1
26,134,35,0.043810320777684,1
27,132,35,0.0446818323631921,1
27,133,35,0.0524475120671833,1
27,134,35,0.0578249964510193,1
27,135,35,0.053040014509081,1
27,136,35,0.0468411173445717,1
27,137,35,0.0426192198003799,1
28,132,35,0.0492537321825379,1
28,133,35,0.0649530355874746,1
28,134,35,0.0737024896153926,1
28,135,35,0.0673902348486638,1
28,136,35,0.0540083985623449,1
28,137,35,0.0435489700299931,1
29,132,35,0.0477154458389207,1
29,133,35,0.0605123382986191,1
29,134,35,0.0665474654654545,1
29,135,35,0.0650805209877767,1
29,136,35,0.0548349693680357,1
29,137,35,0.0422583094377281,1
30,132,35,0.0435231799049055,1
30,133,35,0.0524636133234749,1
30,134,35,0.0566582014500949,1
30,135,35,0.0626860078979852,1
30,136,35,0.0554261147194938,1
31,133,35,0.0443802690252834,1
31,134,35,0.0500590058597759,1
31,135,35,0.0573704738817077,1
31,136,35,0.0506578125544729,1
32,135,35,0.0437487137377865,1
41,135,35,0.0412139093962736,1
41,136,35,0.0411832640233183,1
43,135,35,0.0432172371117932,1
44,134,35,0.0469924085982828,1
44,135,35,0.0482170826954468,1
44,136,35,0.044138774511216,1
45,135,35,0.0462528537827723,1
45,137,35,0.0426375810718259,1
46,130,35,0.0432582012381509,1
46,131,35,0.0442373987610532,1
46,132,35,0.043921299416583,1
46,138,35,0.0489124590807495,1
46,139,35,0.048854936829008,1
46,140,35,0.0446855035361343,1
47,129,35,0.0421426269395364,1
47,130,35,0.044921515621095,1
47,131,35,0.0471142439606988,1
47,132,35,0.046889437333651,1
47,133,35,0.0449789892122232,1
47,139,35,0.0527334039842186,1
47,140,35,0.0519111099057697,1
47,141,35,0.0444531193702374,1
48,126,35,0.0435237908659401,1
48,127,35,0.0457509844366489,1
48,128,35,0.0422022145639788,1
48,129,35,0.0415160269245013,1
48,130,35,0.0439505822923639,1
48,131,35,0.0477254158579273,1
48,132,35,0.048654476728851,1
48,140,35,0.0499576187684462,1
48,141,35,0.0461813334945838,1
48,142,35,0.0415156754867381,1
49,126,35,0.0470054388291971,1
49,127,35,0.0514069697310223,1
49,128,35,0.044742901432975,1
49,130,35,0.0423467014419199,1
49,131,35,0.0476025478091608,1
50,126,35,0.0439434670293418,1
50,127,35,0.0482124923775853,1
50,128,35,0.0432549058332786,1
16,150,36,0.042150861396666,1
16,151,36,0.0416749011237963,1
24,132,36,0.0431326919994252,1
24,133,36,0.047742739036288,1
24,134,36,0.0441378229258879,1
25,132,36,0.0423074296235606,1
25,133,36,0.0479037353789996,1
25,134,36,0.0454839782443372,1
26,133,36,0.0451720637126171,1
26,134,36,0.0458048192952438,1
26,135,36,0.0418132946115962,1
27,132,36,0.0439065390305266,1
27,133,36,0.0527622218808049,1
27,134,36,0.0612972015519146,1
27,135,36,0.0566926910115067,1
27,136,36,0.0484480530001885,1
27,137,36,0.0426718408470078,1
28,131,36,0.0411224058161933,1
28,132,36,0.0489013482406961,1
28,133,36,0.065481311426455,1
28,134,36,0.0790310160154406,1
28,135,36,0.0735337670486244,1
28,136,36,0.0576319111371557,1
28,137,36,0.0449489358767306,1
29,132,36,0.0467286194131885,1
29,133,36,0.0598165780351441,1
29,134,36,0.0690706696574128,1
29,135,36,0.0682173192941624,1
29,136,36,0.05747358031471,1
29,137,36,0.0445140667884869,1
30,132,36,0.0427330315683242,1
30,133,36,0.0544212838668137,1
30,134,36,0.0612424637686049,1
30,135,36,0.0692628628600312,1
30,136,36,0.0620730463715316,1
30,137,36,0.0460177473258938,1
31,133,36,0.046963812377824,1
31,134,36,0.0548666203936674,1
31,135,36,0.0655151359594839,1
31,136,36,0.0593552375732256,1
31,137,36,0.0433631243340525,1
32,135,36,0.0453534380388622,1
32,136,36,0.041876910253479,1
43,135,36,0.0430923280206324,1
43,136,36,0.0414627381461232,1
44,134,36,0.0414131935316074,1
44,135,36,0.046703332114439,1
44,136,36,0.0443277669268214,1
45,135,36,0.0432786873563809,1
46,131,36,0.0435592779699259,1
46,132,36,0.0448221452418528,1
46,133,36,0.0437987665853753,1
46,138,36,0.0484684796443355,1
46,139,36,0.0445188409353323,1
47,129,36,0.0420693575726339,1
47,130,36,0.0431676276164596,1
47,131,36,0.0471497283613173,1
47,132,36,0.0491770376491275,1
47,133,36,0.0464632460547921,1
47,140,36,0.0444272427373926,1
48,126,36,0.0413562308769196,1
48,127,36,0.0434688097795635,1
48,128,36,0.0412594611371254,1
48,130,36,0.0411633753492859,1
48,131,36,0.0469973611673772,1
48,132,36,0.0505955594097645,1
48,133,36,0.048071463106561,1
49,126,36,0.0441222055723626,1
49,127,36,0.0472956291004136,1
49,128,36,0.0416670505448388,1
49,131,36,0.0478768260598044,1
49,132,36,0.0530425502677112,1
50,126,36,0.0411873352946372,1
50,127,36,0.0448081715357125,1
24,132,37,0.0429211480928889,1
24,133,37,0.0485044722780269,1
24,134,37,0.0429485818653616,1
25,132,37,0.0437888938875955,1
25,133,37,0.0496161726511435,1
25,134,37,0.0443902147139833,1
26,133,37,0.0452292047895539,1
26,134,37,0.045241402383306,1
26,135,37,0.0421278962905214,1
27,132,37,0.0414836081425253,1
27,133,37,0.0490592194906821,1
27,134,37,0.0575002679577776,1
27,135,37,0.0561820573482414,1
27,136,37,0.049823915623102,1
27,137,37,0.0436131128285208,1
28,132,37,0.0459801056380825,1
28,133,37,0.0587826751693411,1
28,134,37,0.0725971313422189,1
28,135,37,0.0719213597773706,1
28,136,37,0.0601868420490331,1
28,137,37,0.0469824169523369,1
29,132,37,0.0457857713684757,1
29,133,37,0.056776836025498,1
29,134,37,0.0662713597384421,1
29,135,37,0.06733816258562,1
29,136,37,0.0601858958704398,1
29,137,37,0.0469954417765164,1
30,132,37,0.0426479187488002,1
30,133,37,0.0545045529897643,1
30,134,37,0.0610072491770301,1
30,135,37,0.0663237185584313,1
30,136,37,0.0626345033420974,1
30,137,37,0.0475422843428659,1
31,133,37,0.0476591401025134,1
31,134,37,0.0537554012199497,1
31,135,37,0.0611506844450488,1
31,136,37,0.059225881442676,1
31,137,37,0.0446285408814466,1
32,135,37,0.0436245832164397,1
32,136,37,0.0427487273195044,1
43,135,37,0.0432410429652022,1
43,136,37,0.0413840187905229,1
44,135,37,0.0440386688160384,1
44,136,37,0.0422950482008246,1
46,131,37,0.0409858100677209,1
46,132,37,0.043751376554685,1
46,133,37,0.0421515913058666,1
47,131,37,0.0454905095799988,1
47,132,37,0.0497229340368836,1
47,133,37,0.0465527004823759,1
48,131,37,0.0451986783647646,1
48,132,37,0.0506501187708251,1
48,133,37,0.0475092437863857,1
49,127,37,0.0412171372169607,1
49,131,37,0.0470862208541309,1
49,132,37,0.0520139081548873,1
24,132,38,0.0414490834373373,1
24,133,38,0.0462105568962816,1
25,132,38,0.0438601249154711,1
25,133,38,0.0489779130124709,1
25,134,38,0.0431656163111068,1
26,133,38,0.0434400459503253,1
26,134,38,0.0435071354193295,1
26,135,38,0.0422887304311884,1
27,133,38,0.0452413618327949,1
27,134,38,0.0520424611214675,1
27,135,38,0.0534906982966709,1
27,136,38,0.0486164727898068,1
27,137,38,0.0438262382049917,1
27,138,38,0.0420710390671626,1
28,132,38,0.0440028437911263,1
28,133,38,0.0537773904104594,1
28,134,38,0.0639154993958731,1
28,135,38,0.0662607517247268,1
28,136,38,0.058254988664456,1
28,137,38,0.0474702774485437,1
28,138,38,0.0412720885662957,1
29,132,38,0.0467063004118548,1
29,133,38,0.0570880152412827,1
29,134,38,0.0637014089172369,1
29,135,38,0.0653056087650352,1
29,136,38,0.0601713463470413,1
29,137,38,0.0477767690252401,1
30,132,38,0.0438578784171537,1
30,133,38,0.0560209096169549,1
30,134,38,0.0603515257848914,1
30,135,38,0.0620603459514413,1
30,136,38,0.0600445313818567,1
30,137,38,0.0470506986063687,1
31,133,38,0.047454565477159,1
31,134,38,0.0502001648924358,1
31,135,38,0.0526427114143612,1
31,136,38,0.0533633318445348,1
31,137,38,0.0433151638928387,1
32,135,38,0.0411298049327934,1
32,136,38,0.042323806623328,1
43,135,38,0.0421427972516832,1
44,135,38,0.0412935695237324,1
46,132,38,0.041769397331599,1
47,131,38,0.042328651057726,1
47,132,38,0.0477693401715985,1
47,133,38,0.044763717362029,1
48,131,38,0.0422911175046111,1
48,132,38,0.0477305035953921,1
48,133,38,0.0447872961325756,1
49,131,38,0.0434764116487193,1
49,132,38,0.0464709884990532,1
25,133,39,0.0440706172120851,1
25,134,39,0.04214393807273,1
26,134,39,0.0432832019799549,1
26,135,39,0.0446759903862199,1
26,136,39,0.0425923861754722,1
27,134,39,0.0459425774917024,1
27,135,39,0.0491845530105262,1
27,136,39,0.0461789761582026,1
27,137,39,0.043674546852904,1
27,138,39,0.0444287106658961,1
27,139,39,0.0430275769644376,1
28,133,39,0.0479928654024942,1
28,134,39,0.0531605144079967,1
28,135,39,0.0567033422791005,1
28,136,39,0.0535511077448059,1
28,137,39,0.0475033991060461,1
28,138,39,0.0447587134289538,1
29,132,39,0.04537937414579,1
29,133,39,0.0546725240203926,1
29,134,39,0.0574804684948697,1
29,135,39,0.0584769837893979,1
29,136,39,0.0558993229643406,1
29,137,39,0.0463874490393616,1
30,132,39,0.0453096624103985,1
30,133,39,0.057044491025988,1
30,134,39,0.0584982917313204,1
30,135,39,0.0562612822335472,1
30,136,39,0.0538332636080811,1
30,137,39,0.0444426897787711,1
31,133,39,0.0484420190841303,1
31,134,39,0.0489937817791652,1
31,135,39,0.0468790780297374,1
31,136,39,0.0468677401068215,1
31,137,39,0.0413617133060263,1
32,135,39,0.0413707506632766,1
32,136,39,0.0431539756110411,1
37,133,39,0.0441928905200215,1
38,133,39,0.0411061423578572,1
47,132,39,0.0428938873359305,1
47,133,39,0.0410512450758703,1
48,132,39,0.0430046145616604,1
49,132,39,0.0411740779808605,1
22,140,40,0.0415416683643814,1
23,140,40,0.0437014372485274,1
25,135,40,0.0412546112959926,1
26,134,40,0.0425351099301649,1
26,135,40,0.0458710139496354,1
26,136,40,0.0424552767871919,1
26,139,40,0.0421844372198933,1
27,134,40,0.0417841063536747,1
27,135,40,0.0458861474003943,1
27,136,40,0.0449207289411788,1
27,137,40,0.0438201231879112,1
27,138,40,0.0463690553275067,1
27,139,40,0.0454721969691661,1
28,133,40,0.0448548289538349,1
28,134,40,0.0472008490390329,1
28,135,40,0.0510818952067522,1
28,136,40,0.0520386007128066,1
28,137,40,0.0488492002833648,1
28,138,40,0.047476906105432,1
28,139,40,0.0426531335445334,1
29,132,40,0.0456715000280718,1
29,133,40,0.0544780437689457,1
29,134,40,0.0559774610959477,1
29,135,40,0.0562758641973546,1
29,136,40,0.0550566346821536,1
29,137,40,0.046944883399222,1
30,132,40,0.0477230963686898,1
30,133,40,0.0598925696930281,1
30,134,40,0.0621700269739837,1
30,135,40,0.0574961642460499,1
30,136,40,0.0519231020435987,1
30,137,40,0.0430265280578827,1
31,132,40,0.0418041653398539,1
31,133,40,0.0524642350979791,1
31,134,40,0.0561432423989743,1
31,135,40,0.0515756057900334,1
31,136,40,0.0460155035309439,1
32,133,40,0.0421911037239254,1
32,134,40,0.0461840260485238,1
32,135,40,0.0456245641631062,1
32,136,40,0.0440974427268906,1
32,137,40,0.0411595771180754,1
33,136,40,0.0424719971146203,1
37,132,40,0.0449756775871464,1
37,133,40,0.0516596480760632,1
37,134,40,0.0445710889172577,1
38,132,40,0.042600839605362,1
38,133,40,0.0479278980769066,1
38,134,40,0.0434008957834995,1
23,140,41,0.0431589525104421,1
26,135,41,0.0429479519807551,1
27,135,41,0.0418225752719133,1
27,136,41,0.0440461328134563,1
27,137,41,0.045190457424472,1
27,138,41,0.0461009515680266,1
27,139,41,0.0421229464247944,1
28,134,41,0.0413582935462531,1
28,135,41,0.0455103522967853,1
28,136,41,0.0505224279145999,1
28,137,41,0.0507817241030595,1
28,138,41,0.0476292300454936,1
29,133,41,0.0477745576706991,1
29,134,41,0.0512532346331729,1
29,135,41,0.052616937509478,1
29,136,41,0.052908609226035,1
29,137,41,0.0478033052797328,1
30,132,41,0.0448307933141961,1
30,133,41,0.0554506829225123,1
30,134,41,0.0622323233725707,1
30,135,41,0.0584470088515602,1
30,136,41,0.0497726381500766,1
30,137,41,0.0411263067753654,1
31,132,41,0.0420157876440451,1
31,133,41,0.0532320617298593,1
31,134,41,0.0628436304381696,1
31,135,41,0.0583290987786229,1
31,136,41,0.0461398962789294,1
32,133,41,0.0450345028619794,1
32,134,41,0.0531539506319262,1
32,135,41,0.0519748390890837,1
32,136,41,0.0444427114057104,1
33,135,41,0.0421659840339553,1
33,136,41,0.0419698006610404,1
36,133,41,0.0422517429582902,1
37,131,41,0.0413094842476727,1
37,132,41,0.0482896248565161,1
37,133,41,0.0530739147363975,1
37,134,41,0.0467928243891666,1
38,131,41,0.0415109256701994,1
38,132,41,0.0464523568908662,1
38,133,41,0.049547555779553,1
38,134,41,0.0445934971297159,1
27,136,42,0.0427204555031347,1
27,137,42,0.0470098561315444,1
27,138,42,0.0461189938421183,1
28,135,42,0.041973355589184,1
28,136,42,0.0493159691070418,1
28,137,42,0.0531750639313952,1
28,138,42,0.048213995449865,1
29,133,42,0.0433453523967017,1
29,134,42,0.0532306235383974,1
29,135,42,0.0571449427521941,1
29,136,42,0.0539171328785967,1
29,137,42,0.0484706098978542,1
29,138,42,0.0419683840965177,1
30,133,42,0.0529126426502101,1
30,134,42,0.0716532452044209,1
30,135,42,0.0733023317646882,1
30,136,42,0.05481375874734,1
31,132,42,0.0418451754234576,1
31,133,42,0.0532840042312674,1
31,134,42,0.0731323115815634,1
31,135,42,0.0733277542318081,1
31,136,42,0.0510717521722314,1
32,133,42,0.0454457093752868,1
32,134,42,0.0574284665193786,1
32,135,42,0.0574596795994898,1
32,136,42,0.0442458548943104,1
33,134,42,0.0411075210752361,1
33,135,42,0.0418928682312979,1
36,132,42,0.0432146094386711,1
36,133,42,0.0430646347248885,1
37,131,42,0.0467050622695812,1
37,132,42,0.0498844223924637,1
37,133,42,0.0498134698114313,1
37,134,42,0.0463095379906169,1
38,131,42,0.0462360334307497,1
38,132,42,0.0478867528249324,1
38,133,42,0.0470141761126649,1
38,134,42,0.0438476515782432,1
27,137,43,0.0441459276213818,1
27,138,43,0.0426149998438535,1
28,136,43,0.0434980277745265,1
28,137,43,0.0499533041940604,1
28,138,43,0.0458988099733409,1
29,134,43,0.0524205811210488,1
29,135,43,0.0582416502496571,1
29,136,43,0.0501419289516981,1
29,137,43,0.0466336555228239,1
29,138,43,0.0426634982551818,1
30,133,43,0.0510181714301731,1
30,134,43,0.074293564679298,1
30,135,43,0.0828493602794616,1
30,136,43,0.0579908480415985,1
31,132,43,0.0410868024674089,1
31,133,43,0.0529005207507455,1
31,134,43,0.0757968856688395,1
31,135,43,0.0833066024363872,1
31,136,43,0.0560751878278049,1
32,133,43,0.0455205818390632,1
32,134,43,0.0565920392361123,1
32,135,43,0.0594839232686575,1
32,136,43,0.0447481243388104,1
33,134,43,0.041531092791075,1
33,135,43,0.0414640627961539,1
36,132,43,0.0434845433778874,1
37,131,43,0.0436493190282376,1
37,132,43,0.0456907101568844,1
37,133,43,0.0420118191006878,1
38,131,43,0.043866691394909,1
38,132,43,0.0445209820023207,1
28,137,44,0.0447566318360484,1
28,138,44,0.0439470003305461,1
29,134,44,0.0463956943099609,1
29,135,44,0.0528274216959898,1
29,136,44,0.0449285389696251,1
29,137,44,0.043718179202895,1
29,138,44,0.0461276013639505,1
29,139,44,0.0455780392099869,1
29,140,44,0.042411460608217,1
30,133,44,0.0455458475108734,1
30,134,44,0.065859707169512,1
30,135,44,0.0775981772210023,1
30,136,44,0.0555343845842485,1
30,139,44,0.0426490406462752,1
31,133,44,0.0492659568099642,1
31,134,44,0.0681498810907625,1
31,135,44,0.0785949358185974,1
31,136,44,0.0550361215302496,1
32,132,44,0.0411614938055688,1
32,133,44,0.0458924408397239,1
32,134,44,0.0529630928928082,1
32,135,44,0.0555212624388423,1
32,136,44,0.0430885162725849,1
33,134,44,0.0417780616241468,1
35,136,44,0.0412247498995861,1
36,132,44,0.0434397404698081,1
36,136,44,0.0413712453795126,1
37,132,44,0.0430787057522555,1
38,132,44,0.0411525645830149,1
28,138,45,0.0420232029808497,1
28,139,45,0.0436894478140658,1
29,135,45,0.0426089956648368,1
29,138,45,0.0477736168988405,1
29,139,45,0.0539178033137142,1
29,140,45,0.0467561234732138,1
30,134,45,0.0500196448302921,1
30,135,45,0.0575822340576368,1
30,136,45,0.0466520113875351,1
30,138,45,0.0432934909963159,1
30,139,45,0.0492854372755178,1
30,140,45,0.0430115730293728,1
31,133,45,0.0440202832142857,1
31,134,45,0.0544930690850083,1
31,135,45,0.05997923965218,1
31,136,45,0.0472882705343247,1
32,133,45,0.0445464152829102,1
32,134,45,0.0472517426338861,1
32,135,45,0.0464620890135408,1
35,136,45,0.0425667852861032,1
36,136,45,0.0431247630228129,1
48,123,45,0.0474053966307132,1
28,139,46,0.0469370382269993,1
28,140,46,0.0417932112951102,1
29,138,46,0.0454898067044723,1
29,139,46,0.0570394249154625,1
29,140,46,0.0480272522359444,1
30,139,46,0.0487286300968965,1
31,135,46,0.0412229116097476,1
35,136,46,0.0418085069479138,1
36,136,46,0.0431621587041899,1
48,123,46,0.0469670023513673,1
28,139,47,0.0417754853150055,1
29,139,47,0.0476789341586865,1
29,140,47,0.041826368096389,1
