x,y,z,signal,cytoplasm.p
453,419,3,0.0465924345765623,1
453,449,3,0.0425338015003386,1
454,419,3,0.0434381292628319,1
455,434,3,0.0429594331821437,1
456,434,3,0.0437755527694291,1
447,456,4,0.0451016436949643,1
447,457,4,0.0440610959520685,1
448,456,4,0.0484087027841743,1
448,457,4,0.047073206843421,1
452,449,4,0.0416230126897364,1
453,418,4,0.0429803031785459,1
453,419,4,0.0481207995617863,1
453,449,4,0.0465472018330648,1
454,418,4,0.042276808580912,1
454,419,4,0.0446797615837563,1
455,434,4,0.0463597935907614,1
456,434,4,0.0481455137466449,1
447,456,5,0.0502435971932385,1
447,457,5,0.0486284108602876,1
448,456,5,0.0588027611891945,1
448,457,5,0.0565778519639467,1
449,456,5,0.0443450982152844,1
449,457,5,0.0431851913945197,1
453,419,5,0.0412810448225237,1
453,448,5,0.0418372572603149,1
453,449,5,0.0475595750808177,1
454,449,5,0.0445013150044158,1
455,434,5,0.0453428029914728,1
456,434,5,0.0507427036978692,1
456,435,5,0.04483516195593,1
447,456,6,0.0471650997084083,1
447,457,6,0.0456027263611714,1
448,456,6,0.0604056417936968,1
448,457,6,0.0581976069878198,1
449,456,6,0.045733726139106,1
449,457,6,0.0441913631174351,1
453,448,6,0.0439071391780915,1
453,449,6,0.0468408902617093,1
454,448,6,0.0460650508488271,1
454,449,6,0.0511487062289132,1
456,434,6,0.0481915629071001,1
456,435,6,0.0458638716529392,1
447,456,7,0.0419896947418077,1
447,457,7,0.0415468182792967,1
448,456,7,0.0544278692698235,1
448,457,7,0.0535012954969166,1
449,456,7,0.0431369930569739,1
449,457,7,0.0420764079548381,1
453,448,7,0.0448098989874873,1
453,449,7,0.0484461876766759,1
454,448,7,0.0516420707811659,1
454,449,7,0.0618984899378935,1
454,450,7,0.0463391128300779,1
455,449,7,0.0502033873063881,1
456,434,7,0.0454692827390986,1
456,435,7,0.0461081263051317,1
460,439,7,0.042532490367145,1
448,443,8,0.0449092125960139,1
448,444,8,0.0534756026930557,1
448,445,8,0.0431085238947834,1
449,443,8,0.049811204389542,1
449,444,8,0.0622884831271378,1
449,445,8,0.0490462217001767,1
450,444,8,0.0473236792406557,1
453,448,8,0.04385552378414,1
453,449,8,0.0495773144479979,1
453,450,8,0.0420383986090591,1
454,417,8,0.045227555735434,1
454,448,8,0.0535435491295287,1
454,449,8,0.0697502583770435,1
454,450,8,0.0567841891848521,1
455,439,8,0.0442024036699359,1
455,448,8,0.0425083438894424,1
455,449,8,0.0574987486652934,1
455,450,8,0.0476938837804617,1
435,437,9,0.0419360031616855,1
436,436,9,0.0455476966141815,1
436,437,9,0.0473443816282784,1
448,443,9,0.0459657129099938,1
448,444,9,0.0610695726092911,1
448,445,9,0.0517323686593815,1
449,443,9,0.0583096615669479,1
449,444,9,0.0832740484860407,1
449,445,9,0.0686185638985655,1
450,443,9,0.0439216184139374,1
450,444,9,0.0639077731718164,1
450,445,9,0.0546744109708446,1
453,449,9,0.0445833730187669,1
453,450,9,0.0427938924788166,1
454,417,9,0.0482937610086528,1
454,448,9,0.0473449277084952,1
454,449,9,0.0628794176159379,1
454,450,9,0.0576341387119012,1
454,451,9,0.041596214208605,1
455,417,9,0.0466236692836128,1
455,439,9,0.0520094638188659,1
455,440,9,0.0511800058167816,1
455,449,9,0.0547362586104415,1
455,450,9,0.0489829520893224,1
456,439,9,0.0431921066083535,1
456,440,9,0.0428528988792661,1
457,423,9,0.0448113101452751,1
436,436,10,0.0458263056594153,1
436,437,10,0.0494626267890129,1
437,437,10,0.0414830539522064,1
447,445,10,0.042002019393828,1
448,443,10,0.0451239005188476,1
448,444,10,0.0638224548963693,1
448,445,10,0.0584065718818474,1
448,446,10,0.0412869219432722,1
449,443,10,0.0618188703609458,1
449,444,10,0.0940613873750752,1
449,445,10,0.0823934698062408,1
449,446,10,0.0479300337371602,1
450,443,10,0.0498907158317933,1
450,444,10,0.0748579575068707,1
450,445,10,0.0661314388480558,1
450,446,10,0.043482837553052,1
451,444,10,0.0417963904551839,1
453,450,10,0.0413003036119497,1
454,417,10,0.0430051417183053,1
454,440,10,0.0432899468816419,1
454,449,10,0.0489980747266117,1
454,450,10,0.0508108772172046,1
454,451,10,0.0417587082168615,1
455,417,10,0.0524080915636165,1
455,439,10,0.0570267407155766,1
455,440,10,0.0644834552616916,1
455,441,10,0.0462341627005023,1
455,449,10,0.0450541239026383,1
455,450,10,0.0434488075640999,1
456,417,10,0.0414563419788321,1
456,439,10,0.0481817929372818,1
456,440,10,0.0542888188637431,1
457,423,10,0.0477402249045971,1
436,437,11,0.0424234040854326,1
437,437,11,0.0418262302246511,1
447,445,11,0.0416050001526862,1
448,444,11,0.0559627277435654,1
448,445,11,0.0560949170031602,1
448,446,11,0.0431543297521717,1
449,443,11,0.0521485953259686,1
449,444,11,0.0794943840029163,1
449,445,11,0.0756132459207051,1
449,446,11,0.0482217811480046,1
450,443,11,0.0474779009446388,1
450,444,11,0.0677521941178705,1
450,445,11,0.0629866385741376,1
450,446,11,0.0434560904359013,1
451,444,11,0.0420518532686567,1
454,440,11,0.0432754054683456,1
455,417,11,0.0490962015568455,1
455,439,11,0.0543442541158444,1
455,440,11,0.069126796971571,1
455,441,11,0.0492732613087049,1
456,417,11,0.0445404381375676,1
456,439,11,0.0481320185365362,1
456,440,11,0.0611012236349227,1
456,441,11,0.044551700366196,1
457,423,11,0.0438843146470522,1
448,444,12,0.0453731780276872,1
448,445,12,0.0492224920687526,1
448,446,12,0.0425710322763037,1
449,443,12,0.0419513691020417,1
449,444,12,0.0583777161381172,1
449,445,12,0.0590936759628768,1
449,446,12,0.0437472133688742,1
450,443,12,0.0439949472549229,1
450,444,12,0.055559428579931,1
450,445,12,0.0522117189549828,1
451,444,12,0.042182382660662,1
455,439,12,0.0442912228061784,1
455,440,12,0.0608648844425055,1
455,441,12,0.0469874776561277,1
456,417,12,0.0421382799247417,1
456,439,12,0.0423113008456912,1
456,440,12,0.0579966602815291,1
456,441,12,0.0447488001806628,1
458,416,12,0.0439364950447924,1
429,416,13,0.0423331683846675,1
449,445,13,0.0412940372062943,1
450,444,13,0.0414805857777614,1
455,440,13,0.0439153384914449,1
456,440,13,0.0464305353091359,1
456,441,13,0.0425878850687352,1
445,456,14,0.0422083890551424,1
445,456,15,0.0447768638377419,1
445,456,16,0.0415342908747206,1
450,390,17,0.0440832392345205,1
449,390,18,0.0482669814510932,1
450,390,18,0.0575185535349362,1
450,391,18,0.0470577381751033,1
449,389,19,0.0439193638055178,1
449,390,19,0.0548577371283594,1
449,391,19,0.0418806895611176,1
450,389,19,0.0448507306488419,1
450,390,19,0.0592571810305444,1
450,391,19,0.0459050601587919,1
449,389,20,0.0420745101909166,1
449,390,20,0.0480893810257519,1
450,389,20,0.0415524818340198,1
450,390,20,0.0488143646909246,1
447,441,25,0.0427189956847336,1
447,442,25,0.0427301930325441,1
448,442,25,0.0413416272861729,1
465,393,25,0.041449167241727,1
447,441,26,0.0502241653882983,1
447,442,26,0.0518263214903349,1
448,441,26,0.0520266896759999,1
448,442,26,0.0552605118387163,1
448,446,26,0.041550324546827,1
448,447,26,0.0416334801283464,1
448,448,26,0.0423459688293519,1
449,441,26,0.0425802210221289,1
449,442,26,0.0412893793042475,1
450,441,26,0.0434597670155784,1
451,441,26,0.0429951689959313,1
464,393,26,0.0457261513036243,1
465,393,26,0.0561885238030852,1
447,438,27,0.044943704860793,1
447,441,27,0.0472113489180518,1
447,442,27,0.0509234778765495,1
448,441,27,0.0552655779492419,1
448,442,27,0.0614858587499612,1
448,443,27,0.0449635367641099,1
448,447,27,0.0458307986560501,1
448,448,27,0.0480254193528407,1
449,441,27,0.0463236603819646,1
449,442,27,0.0485641950708399,1
449,447,27,0.0414525059004778,1
449,448,27,0.0435527871847755,1
450,441,27,0.0446675612866368,1
451,440,27,0.0423724050592505,1
451,441,27,0.0466305682772421,1
464,393,27,0.0500093341869919,1
465,393,27,0.0602376653563337,1
465,394,27,0.0450454055427423,1
447,437,28,0.0427098015321735,1
447,438,28,0.0520330588096169,1
447,439,28,0.0428132621063064,1
447,442,28,0.0434729297114958,1
447,445,28,0.0419901029502865,1
448,438,28,0.0471841260082371,1
448,441,28,0.0506641222140069,1
448,442,28,0.0569360373322496,1
448,443,28,0.0426339693729667,1
448,447,28,0.0441199834043519,1
448,448,28,0.0462862241500764,1
449,441,28,0.0458949333444755,1
449,442,28,0.0496508676684784,1
449,447,28,0.0424468314674043,1
449,448,28,0.0449327454093145,1
450,441,28,0.0422072590475652,1
451,440,28,0.0423779577759098,1
451,441,28,0.0437590730417001,1
454,434,28,0.0423468176867186,1
455,433,28,0.0482029440838945,1
455,434,28,0.0550681348071141,1
455,435,28,0.0439060875681692,1
456,433,28,0.0473033985783488,1
456,434,28,0.0533742156017259,1
456,435,28,0.0416286194737439,1
464,393,28,0.0446077573928015,1
465,393,28,0.051625261242613,1
465,394,28,0.0422459901924426,1
447,438,29,0.0478040297821986,1
447,439,29,0.0415209470531868,1
448,438,29,0.0451858400729364,1
448,439,29,0.0418373708017461,1
448,441,29,0.0428372788223734,1
448,442,29,0.0451957722447993,1
449,441,29,0.0425803021231512,1
449,442,29,0.0450341595343184,1
453,435,29,0.0419778161454099,1
454,434,29,0.0441699578542858,1
454,435,29,0.0445399488280664,1
454,436,29,0.0411081644766795,1
455,433,29,0.0520631526956206,1
455,434,29,0.0573856505863453,1
455,435,29,0.045542181744666,1
456,433,29,0.052747445274544,1
456,434,29,0.05692241776724,1
456,435,29,0.0418924681329212,1
446,444,30,0.0434155291112876,1
446,445,30,0.0411357982983405,1
448,439,30,0.041414280285306,1
450,442,30,0.0412007088532125,1
453,435,30,0.0467100148386756,1
453,436,30,0.0440592738824344,1
454,434,30,0.04399921857543,1
454,435,30,0.0500749557274926,1
454,436,30,0.0476607404960199,1
455,433,30,0.0467865850171852,1
455,434,30,0.0511136976209588,1
455,435,30,0.0435579803535693,1
456,433,30,0.0483252173918309,1
456,434,30,0.0491962531846749,1
450,442,31,0.0420177259584778,1
453,435,31,0.0430179421629898,1
453,436,31,0.0413819696380265,1
454,434,31,0.0430457598136346,1
454,435,31,0.0504516537558165,1
454,436,31,0.0467518251190325,1
455,434,31,0.0420478712084623,1
455,440,31,0.0423672118904566,1
454,435,32,0.0439718929376538,1
455,436,36,0.0467188981039835,1
455,437,36,0.047376005620236,1
452,436,37,0.0440986700556946,1
455,436,37,0.0456309332967232,1
455,437,37,0.0466591644977009,1
456,437,37,0.0416982095576019,1
450,434,38,0.0416058408999506,1
450,435,38,0.0412412377374173,1
451,434,38,0.0447056301064988,1
451,435,38,0.0464369693235708,1
451,436,38,0.0431489743813333,1
452,435,38,0.0429310559344451,1
452,436,38,0.0448231887416729,1
450,434,39,0.0454555874798015,1
450,435,39,0.0450373576179639,1
451,433,39,0.0456731166417827,1
451,434,39,0.0518456992279269,1
451,435,39,0.0494107437616877,1
452,432,39,0.0410811335059509,1
452,433,39,0.0493449221719987,1
452,434,39,0.0483566899952135,1
452,435,39,0.0427604869677362,1
453,433,39,0.0442594717559526,1
449,430,40,0.0439135461588523,1
449,431,40,0.0418016241744889,1
450,430,40,0.0440039656886013,1
450,431,40,0.0456249210076043,1
450,432,40,0.0428751367795775,1
450,433,40,0.0412996737273433,1
450,434,40,0.0441176801353189,1
450,435,40,0.0438041138461115,1
451,432,40,0.0448115264146678,1
451,433,40,0.0524341358052406,1
451,434,40,0.052558171708728,1
451,435,40,0.0460340594448434,1
452,432,40,0.0460835635088481,1
452,433,40,0.0588430846174761,1
452,434,40,0.0532627449499583,1
453,433,40,0.0477939029678822,1
453,434,40,0.0412657275427809,1
449,429,41,0.0446026399182952,1
449,430,41,0.0476157618690589,1
449,431,41,0.0452061558790196,1
450,429,41,0.0446624735491719,1
450,430,41,0.0478177953290483,1
450,431,41,0.0494272721500301,1
450,432,41,0.0465728621965167,1
450,433,41,0.0420970022077645,1
451,432,41,0.0448768532881209,1
451,433,41,0.0488912268331145,1
451,434,41,0.0436952816809357,1
452,432,41,0.0437969337022716,1
452,433,41,0.0543123003130629,1
452,434,41,0.0480013431626907,1
453,433,41,0.042502163991544,1
443,428,42,0.0473106273828021,1
443,429,42,0.045055778363493,1
444,427,42,0.0479302716334922,1
444,428,42,0.0611941005256471,1
444,429,42,0.0572349757004036,1
444,430,42,0.0410607582257847,1
445,427,42,0.0417567644956939,1
445,428,42,0.0542124217007477,1
445,429,42,0.0513429539907629,1
446,428,42,0.0410677004732926,1
448,430,42,0.041324804230783,1
448,431,42,0.041167362816215,1
449,429,42,0.0466591428707617,1
449,430,42,0.0510623336401764,1
449,431,42,0.0473169586692754,1
449,432,42,0.042426204774069,1
450,429,42,0.0479236321631342,1
450,430,42,0.0521660861131087,1
450,431,42,0.0514139390122043,1
450,432,42,0.0480766589787223,1
450,433,42,0.0428850148840921,1
451,430,42,0.0433117873869441,1
451,431,42,0.0467584537759209,1
451,432,42,0.0477989961120819,1
451,433,42,0.046542200603357,1
452,432,42,0.0445297706497693,1
452,433,42,0.0477966820295792,1
452,434,42,0.041833172472159,1
457,436,42,0.0410116975140352,1
443,427,43,0.0445780852321137,1
443,428,43,0.0593535885191057,1
443,429,43,0.0540662398114408,1
444,427,43,0.0549423146811363,1
444,428,43,0.0787334293309914,1
444,429,43,0.0725547857951149,1
444,430,43,0.0455968113932792,1
445,427,43,0.046077735048713,1
445,428,43,0.0642590541397552,1
445,429,43,0.0601374028658463,1
446,428,43,0.0434636112040349,1
447,432,43,0.0449241108538082,1
447,433,43,0.0432400778630369,1
448,431,43,0.0426716921618003,1
448,432,43,0.0458445642028998,1
448,433,43,0.0443482097911729,1
449,429,43,0.0434299488730505,1
449,430,43,0.0496984144944785,1
449,431,43,0.0463709098375497,1
449,432,43,0.0430299559277581,1
450,429,43,0.0461639454354052,1
450,430,43,0.0522485442258365,1
450,431,43,0.0490226050824864,1
450,432,43,0.045170136211654,1
451,429,43,0.0418091638661943,1
451,430,43,0.0475451769459942,1
451,431,43,0.0488491624362211,1
451,432,43,0.047427412854897,1
451,433,43,0.0431075560892507,1
452,430,43,0.0435701644304844,1
452,431,43,0.0459833118318303,1
452,432,43,0.0445687559111832,1
452,433,43,0.041019569719932,1
442,428,44,0.047541711228975,1
443,427,44,0.0481409072085789,1
443,428,44,0.0687018005811072,1
443,429,44,0.060691057918068,1
444,427,44,0.0528601378483808,1
444,428,44,0.0792719779661282,1
444,429,44,0.07320433469609,1
444,430,44,0.0437013588508725,1
445,427,44,0.0426717002719025,1
445,428,44,0.0589204495860042,1
445,429,44,0.0555361201461254,1
447,432,44,0.0459531855054177,1
447,433,44,0.0428546263310408,1
448,431,44,0.0417011481179762,1
448,432,44,0.0478453047958084,1
448,433,44,0.0444007010761652,1
449,430,44,0.0444946025431377,1
449,431,44,0.0442353631253938,1
449,432,44,0.0433719400151752,1
450,429,44,0.042350483452926,1
450,430,44,0.0483421296583454,1
450,431,44,0.0451895626098594,1
450,432,44,0.0419826308427664,1
451,429,44,0.0415035427738038,1
451,430,44,0.0460765942276661,1
451,431,44,0.0454971814907657,1
451,432,44,0.0437982042849541,1
452,430,44,0.0442838020626391,1
452,431,44,0.0455111254598644,1
452,432,44,0.0426287005098854,1
453,421,44,0.0480826388274323,1
453,430,44,0.0423471474975425,1
453,431,44,0.0414014419934778,1
455,438,44,0.041829133641249,1
442,427,45,0.0432144986006073,1
442,428,45,0.0583001619338705,1
442,429,45,0.0477713839173602,1
443,427,45,0.0496289433587865,1
443,428,45,0.0700058022915386,1
443,429,45,0.0600179356532811,1
444,427,45,0.0462394234534814,1
444,428,45,0.0644639585759335,1
444,429,45,0.0590338504421022,1
445,428,45,0.0465090410987108,1
445,429,45,0.0436704755815852,1
447,432,45,0.0425288489312442,1
448,432,45,0.0449866775891361,1
449,431,45,0.041325371937939,1
449,432,45,0.0423401025220731,1
450,430,45,0.0418758721603937,1
451,429,45,0.0420474981437598,1
451,430,45,0.0423032853613217,1
452,421,45,0.0498155189639277,1
452,430,45,0.0427271355240039,1
452,431,45,0.041900221390652,1
453,420,45,0.0482184776330301,1
453,430,45,0.0450332295759295,1
453,431,45,0.0434818156801711,1
454,420,45,0.0446368618463333,1
454,430,45,0.0442201593870822,1
454,431,45,0.0418450132214131,1
442,427,46,0.0447922568117722,1
442,428,46,0.0618196759644339,1
442,429,46,0.048748889132264,1
443,427,46,0.0468654206175841,1
443,428,46,0.0642135186191078,1
443,429,46,0.0528824892901234,1
444,428,46,0.0486643656468354,1
444,429,46,0.043162693970937,1
453,420,46,0.0489508577114356,1
453,430,46,0.0430068502465082,1
453,431,46,0.0421145605790898,1
454,430,46,0.0416911240316214,1
442,428,47,0.0515884684121683,1
443,428,47,0.04958577598799,1
460,411,53,0.0458218342897198,1
460,412,53,0.04417962779951,1
461,411,53,0.0468279789789611,1
461,412,53,0.044199903055082,1
460,411,54,0.045093801226109,1
460,412,54,0.0435779176882151,1
461,411,54,0.0451799440286161,1
461,412,54,0.0422494991633402,1
