x,y,z,signal,mito.p
104,84,43,0.133987786353325,1
104,85,43,0.136485565471886,1
74,77,44,0.116335606394141,1
86,78,44,0.183283322478203,1
86,79,44,0.124252958042606,1
87,78,44,0.120991331378499,1
103,84,44,0.121773939471995,1
103,85,44,0.120561628859314,1
104,83,44,0.144266976753125,1
104,84,44,0.144477476460635,1
104,85,44,0.151075300905999,1
104,86,44,0.119791115607466,1
105,85,44,0.115992699379284,1
105,86,44,0.121768074592598,1
105,87,44,0.160157290412529,1
105,88,44,0.141025064563136,1
72,76,45,0.118863334083598,1
72,79,45,0.120242299130707,1
73,76,45,0.143455739097754,1
73,77,45,0.126481941965676,1
74,76,45,0.128214695852065,1
74,77,45,0.123476674126291,1
79,77,45,0.122368518118803,1
86,77,45,0.132897354529557,1
86,78,45,0.121839218641668,1
103,83,45,0.15692113711014,1
103,84,45,0.125178419523821,1
103,85,45,0.120162793506594,1
104,82,45,0.158812136748449,1
104,83,45,0.157765314660437,1
104,84,45,0.144885462438439,1
104,85,45,0.159471217291756,1
104,86,45,0.136046029269375,1
104,87,45,0.147594459653351,1
104,88,45,0.138397586816467,1
105,83,45,0.118688577165184,1
105,85,45,0.124395328578808,1
105,86,45,0.13435097313188,1
105,87,45,0.176467048940605,1
105,88,45,0.16117169078773,1
105,89,45,0.128188186126117,1
106,87,45,0.132321336223973,1
106,88,45,0.123681933128315,1
72,75,46,0.115940527861757,1
72,76,46,0.148680875565725,1
72,77,46,0.125161472613274,1
73,75,46,0.123177317962858,1
73,76,46,0.169360157674338,1
73,77,46,0.137782916835822,1
74,76,46,0.133053609991079,1
74,77,46,0.118098732818612,1
78,77,46,0.138530017677547,1
78,78,46,0.115224494393222,1
79,76,46,0.134051287216193,1
79,77,46,0.148685786518955,1
80,73,46,0.139129954798503,1
80,74,46,0.149678517460241,1
80,75,46,0.12984383686911,1
80,76,46,0.121570623652903,1
81,73,46,0.115773944088527,1
81,74,46,0.130427357038501,1
81,75,46,0.118091160293608,1
97,79,46,0.128914182823507,1
97,80,46,0.134626551802336,1
98,79,46,0.121758358677935,1
98,80,46,0.125372761370823,1
99,80,46,0.135360073917266,1
99,81,46,0.124695603337809,1
100,81,46,0.155913119796451,1
100,82,46,0.13241757677504,1
101,82,46,0.121089185360244,1
102,83,46,0.123117997887513,1
103,83,46,0.172441998698138,1
103,84,46,0.129991966292913,1
103,85,46,0.119475413153667,1
104,82,46,0.154632668235596,1
104,83,46,0.169759911622627,1
104,84,46,0.141202306400331,1
104,85,46,0.151067810819058,1
104,86,46,0.150999799416414,1
104,87,46,0.153490524192086,1
104,88,46,0.140894788868581,1
104,89,46,0.117523350463806,1
104,90,46,0.114849695624536,1
105,83,46,0.125948732568942,1
105,84,46,0.113895557473981,1
105,85,46,0.126318537946335,1
105,86,46,0.14128490934027,1
105,87,46,0.168304620705295,1
105,88,46,0.166263725113244,1
105,89,46,0.13747660054443,1
106,87,46,0.120707261587471,1
106,88,46,0.126581256278836,1
61,78,47,0.11695788423039,1
62,78,47,0.128601259710144,1
63,77,47,0.113968950904506,1
65,76,47,0.117733178889939,1
66,76,47,0.122178451274252,1
66,77,47,0.178845763941289,1
67,76,47,0.117144559337458,1
67,77,47,0.136488097498132,1
72,75,47,0.121435908079769,1
72,76,47,0.171835501862676,1
72,77,47,0.149521378733749,1
73,75,47,0.124573689218298,1
73,76,47,0.169212793746842,1
73,77,47,0.138737608499091,1
74,76,47,0.124580625792524,1
78,76,47,0.132110930731393,1
78,77,47,0.151964418977939,1
78,78,47,0.11730090901391,1
79,73,47,0.117999972018166,1
79,74,47,0.140298113939579,1
79,75,47,0.143488702546413,1
79,76,47,0.155807469529243,1
79,77,47,0.15480358589561,1
80,73,47,0.172670269696832,1
80,74,47,0.198279819096028,1
80,75,47,0.166551057096226,1
80,76,47,0.13616362127897,1
81,73,47,0.160678805381067,1
81,74,47,0.17522780463479,1
81,75,47,0.140175811183482,1
82,73,47,0.11934297051572,1
82,74,47,0.120785554194359,1
96,80,47,0.114096600357885,1
97,79,47,0.147360064684202,1
97,80,47,0.17350682761466,1
98,79,47,0.137348338694006,1
98,80,47,0.162680966859993,1
98,81,47,0.125499715989093,1
99,80,47,0.167462963404377,1
99,81,47,0.167399144566121,1
99,82,47,0.119297193836572,1
100,80,47,0.207991305657823,1
100,81,47,0.225559940527768,1
100,82,47,0.159525014016826,1
101,82,47,0.137507373495965,1
102,83,47,0.136879277887784,1
103,83,47,0.167215449006216,1
103,84,47,0.130744190071461,1
103,85,47,0.117861299417968,1
103,86,47,0.126032513195508,1
103,87,47,0.115805388321438,1
104,82,47,0.151139802802498,1
104,83,47,0.172389049907439,1
104,84,47,0.138673165486923,1
104,85,47,0.137751767024567,1
104,86,47,0.156223805305224,1
104,87,47,0.150085337528285,1
104,88,47,0.1315563463224,1
105,83,47,0.144117728527028,1
105,84,47,0.125479188911204,1
105,85,47,0.125127190155595,1
105,86,47,0.137750259585686,1
105,87,47,0.14431669868247,1
105,88,47,0.146908421863177,1
105,89,47,0.133085772612832,1
49,85,48,0.12335822240546,1
53,82,48,0.162658637921566,1
61,79,48,0.122065216705174,1
61,81,48,0.138339503312079,1
62,77,48,0.116082957282291,1
62,78,48,0.114668272999819,1
62,79,48,0.14152773654566,1
63,77,48,0.114230562211579,1
65,76,48,0.146258009093437,1
65,80,48,0.13474222418273,1
66,76,48,0.130083684527336,1
66,77,48,0.194854988619308,1
66,80,48,0.139001810716741,1
67,77,48,0.132526854317055,1
67,78,48,0.144370507184407,1
67,79,48,0.157258403006059,1
71,76,48,0.14595734569785,1
71,77,48,0.139231754030444,1
72,75,48,0.127178896910871,1
72,76,48,0.189804243986897,1
72,77,48,0.171412417942329,1
73,75,48,0.120618570007676,1
73,76,48,0.160055597172384,1
73,77,48,0.139322412346904,1
74,76,48,0.120659836147047,1
78,75,48,0.139110676068437,1
78,76,48,0.150468839401136,1
78,77,48,0.149136416529482,1
79,73,48,0.121756203511409,1
79,74,48,0.179200165177615,1
79,75,48,0.194863833045868,1
79,76,48,0.171113155993827,1
79,77,48,0.144931309778784,1
80,73,48,0.191406592633203,1
80,74,48,0.236153726355939,1
80,75,48,0.197468828754849,1
80,76,48,0.144184809557238,1
81,73,48,0.214527560646386,1
81,74,48,0.216175002913597,1
81,75,48,0.154254842812282,1
81,76,48,0.115432662281213,1
82,73,48,0.160160010868634,1
82,74,48,0.142301829964851,1
96,80,48,0.115609103291502,1
97,79,48,0.161720422094193,1
97,80,48,0.202000743544228,1
97,81,48,0.129566609437378,1
98,79,48,0.151940441278237,1
98,80,48,0.209832948449642,1
98,81,48,0.167786485697373,1
99,79,48,0.124872350546621,1
99,80,48,0.199190806808612,1
99,81,48,0.206247269533558,1
99,82,48,0.141734373441037,1
100,79,48,0.138698591741176,1
100,80,48,0.251492835566965,1
100,81,48,0.266822405516322,1
100,82,48,0.165587026378013,1
101,80,48,0.210960347856596,1
101,81,48,0.205809523414718,1
101,82,48,0.142019432488832,1
102,83,48,0.147351538233031,1
102,84,48,0.122853371702678,1
103,84,48,0.127780482793103,1
103,85,48,0.114566250007419,1
103,86,48,0.130517426511648,1
103,87,48,0.12266187985731,1
104,83,48,0.176855838626407,1
104,84,48,0.137867180313903,1
104,85,48,0.128568790889869,1
104,86,48,0.153763818150487,1
104,87,48,0.14905678135984,1
105,84,48,0.144852051468863,1
105,85,48,0.127016458594564,1
105,86,48,0.133683966757581,1
105,87,48,0.130995390628761,1
106,85,48,0.116791677316879,1
50,85,49,0.11477517161485,1
51,84,49,0.1486161734625,1
52,83,49,0.164794584601192,1
52,84,49,0.130821952719368,1
53,82,49,0.1330289256794,1
53,83,49,0.149728898894096,1
53,84,49,0.118976639313874,1
54,83,49,0.113899090533859,1
60,80,49,0.130944526343389,1
60,81,49,0.156694915286175,1
61,79,49,0.113833999794046,1
61,80,49,0.161970185873809,1
61,81,49,0.164505910055456,1
62,79,49,0.142794197189399,1
62,80,49,0.154014229657748,1
62,81,49,0.114606715319885,1
63,78,49,0.138322662393329,1
63,79,49,0.182227349765108,1
63,80,49,0.152848084360802,1
64,76,49,0.119342075473885,1
64,77,49,0.181706977152597,1
64,80,49,0.148007851212768,1
65,76,49,0.163814089823949,1
66,76,49,0.139698235702955,1
67,77,49,0.146811769121792,1
67,80,49,0.122220789108453,1
68,77,49,0.119329132697866,1
68,78,49,0.1192097859352,1
69,77,49,0.114185174169017,1
70,76,49,0.134240364803978,1
70,77,49,0.141054377183254,1
71,75,49,0.113875183495353,1
71,76,49,0.182608354942313,1
71,77,49,0.176710276559448,1
72,75,49,0.133136212931018,1
72,76,49,0.201582994544296,1
72,77,49,0.191555334454051,1
72,78,49,0.119330345715091,1
73,75,49,0.122494271496714,1
73,76,49,0.160775658329179,1
73,77,49,0.151569505321683,1
74,75,49,0.117127023583599,1
74,76,49,0.135193513697767,1
75,76,49,0.133111399073811,1
76,76,49,0.123567544426344,1
76,77,49,0.121405264673763,1
77,76,49,0.127808488181067,1
77,77,49,0.126605222201673,1
78,74,49,0.130776917982794,1
78,75,49,0.170224638542065,1
78,76,49,0.159847582383655,1
78,77,49,0.135981174066888,1
79,73,49,0.130649244975683,1
79,74,49,0.23367870014299,1
79,75,49,0.24833656474841,1
79,76,49,0.180243477759482,1
79,77,49,0.130629212526176,1
80,73,49,0.198859052486101,1
80,74,49,0.263405865953447,1
80,75,49,0.220515626064334,1
80,76,49,0.152082010987534,1
81,73,49,0.25735606620257,1
81,74,49,0.238713239807428,1
81,75,49,0.163998762863753,1
81,76,49,0.123812821219916,1
82,73,49,0.211051901214892,1
82,74,49,0.168063230277588,1
82,75,49,0.126857459123204,1
83,73,49,0.121810553749194,1
83,74,49,0.119966449592327,1
83,75,49,0.125175545968454,1
84,75,49,0.124389699236737,1
85,74,49,0.115016291174633,1
97,79,49,0.159984617999442,1
97,80,49,0.204743057513787,1
97,81,49,0.14045613593104,1
98,79,49,0.161847600472921,1
98,80,49,0.256343420580441,1
98,81,49,0.225230871330764,1
98,82,49,0.142600985921557,1
99,79,49,0.133361575043746,1
99,80,49,0.242422505158032,1
99,81,49,0.261501476018202,1
99,82,49,0.173042442224343,1
100,79,49,0.14070617057858,1
100,80,49,0.262085443708511,1
100,81,49,0.276174438566166,1
100,82,49,0.163348774061198,1
101,80,49,0.22353146952962,1
101,81,49,0.21726740147403,1
101,82,49,0.140938198397611,1
102,83,49,0.148476287845077,1
102,84,49,0.129384068010366,1
103,84,49,0.129320190287779,1
103,86,49,0.124352955414009,1
103,87,49,0.122342161492116,1
104,85,49,0.120568530102942,1
104,86,49,0.141647036200862,1
104,87,49,0.145189234926718,1
105,85,49,0.119048348652524,1
60,80,50,0.118144297514167,1
60,81,50,0.151260303698058,1
61,80,50,0.156110476521215,1
61,81,50,0.169108639141649,1
62,79,50,0.14203083249537,1
62,80,50,0.161788998786417,1
62,81,50,0.125883877366455,1
63,78,50,0.127521462396607,1
63,79,50,0.183046124614885,1
63,80,50,0.166323634031903,1
64,77,50,0.161555534189703,1
64,80,50,0.163557295255176,1
65,76,50,0.158001417275193,1
66,76,50,0.146301983912047,1
67,76,50,0.116778663879663,1
67,77,50,0.183648252232964,1
67,80,50,0.13246819374622,1
68,77,50,0.142645796897672,1
68,78,50,0.141512685710582,1
68,79,50,0.118773064403725,1
69,77,50,0.139992951781081,1
69,78,50,0.118147465491191,1
70,76,50,0.164955833454007,1
70,77,50,0.186623595055186,1
70,78,50,0.127968865545779,1
71,75,50,0.121009090892817,1
71,76,50,0.207525766134613,1
71,78,50,0.133454529849127,1
72,75,50,0.133728200667249,1
72,76,50,0.206092521510917,1
72,77,50,0.214454143662129,1
72,78,50,0.133014181042844,1
73,75,50,0.129458085614803,1
73,76,50,0.16701630219778,1
73,77,50,0.168704186223723,1
73,78,50,0.115302433694123,1
74,75,50,0.141033119939657,1
74,76,50,0.153385250784598,1
74,77,50,0.130836367603669,1
75,75,50,0.135408700598048,1
75,76,50,0.165903470774387,1
75,77,50,0.142625917547427,1
76,75,50,0.116033777088794,1
76,76,50,0.170118281662882,1
76,77,50,0.16132568509093,1
77,75,50,0.117622005272456,1
77,76,50,0.155899741276381,1
77,77,50,0.142821154436265,1
78,74,50,0.137232089247165,1
78,75,50,0.175216816818571,1
78,76,50,0.159150132810076,1
78,77,50,0.122993080667106,1
79,73,50,0.133651344838044,1
79,74,50,0.251692335681389,1
79,75,50,0.260827179763688,1
79,76,50,0.179452354991681,1
79,77,50,0.120914063358975,1
80,73,50,0.190828266061832,1
80,74,50,0.260001032595634,1
80,75,50,0.225982635811528,1
80,76,50,0.16120191022655,1
80,77,50,0.11779040268309,1
81,72,50,0.201925465815102,1
81,73,50,0.261374544953665,1
81,74,50,0.228463574011339,1
81,75,50,0.166159005218471,1
81,76,50,0.132877121873324,1
82,73,50,0.239190226444642,1
82,74,50,0.18127262277124,1
82,75,50,0.135704935891922,1
83,73,50,0.137984501455574,1
83,74,50,0.139415520251546,1
83,75,50,0.136783025559851,1
83,76,50,0.114939188031237,1
84,74,50,0.114380670148913,1
84,75,50,0.127779116676617,1
84,76,50,0.117097769847812,1
85,74,50,0.114399312928201,1
86,74,50,0.122891728956083,1
88,77,50,0.118780719366793,1
97,79,50,0.137657705193758,1
97,80,50,0.177633618204736,1
97,81,50,0.133806587489068,1
98,79,50,0.154625154594923,1
98,80,50,0.261091005121618,1
98,81,50,0.249924510287281,1
98,82,50,0.155799579028849,1
99,79,50,0.141883551005938,1
99,80,50,0.264498193852683,1
99,81,50,0.298556561320871,1
99,82,50,0.192805743229079,1
100,79,50,0.136676845333662,1
100,80,50,0.231893539201749,1
100,81,50,0.253462351572621,1
100,82,50,0.159389627162315,1
101,80,50,0.199893673740669,1
101,81,50,0.204551706990814,1
101,82,50,0.141035981718158,1
102,83,50,0.141246610971197,1
102,84,50,0.132311608532443,1
103,84,50,0.14180591790356,1
103,85,50,0.132730817863791,1
103,86,50,0.13081678267508,1
103,87,50,0.12293058083787,1
104,86,50,0.137249318802502,1
104,87,50,0.145375603835264,1
60,81,51,0.132000934800536,1
60,82,51,0.118231776076738,1
61,80,51,0.138118404424936,1
61,81,51,0.155320166357186,1
62,79,51,0.136371636067699,1
62,80,51,0.168429679248097,1
62,81,51,0.13826747599804,1
63,78,51,0.116241462125268,1
63,79,51,0.178135100723769,1
63,80,51,0.191622227054401,1
63,81,51,0.127736131114773,1
64,77,51,0.135193867003755,1
64,80,51,0.192392952289842,1
64,81,51,0.117097781624678,1
66,76,51,0.145816506154261,1
67,76,51,0.127746671410074,1
67,77,51,0.219453187851663,1
67,80,51,0.143474087455386,1
68,77,51,0.167288618676282,1
68,78,51,0.170039200005954,1
68,79,51,0.146342048811059,1
69,76,51,0.128080993089429,1
69,77,51,0.171599446355385,1
69,78,51,0.154146754733758,1
69,79,51,0.116484242223193,1
70,76,51,0.180670318500166,1
71,75,51,0.117811695257286,1
72,75,51,0.130546904007894,1
72,76,51,0.202100375832778,1
72,78,51,0.149873931002073,1
73,74,51,0.118863475405993,1
73,75,51,0.139479727726389,1
73,76,51,0.175747682618919,1
73,77,51,0.181063230089158,1
73,78,51,0.120906926578022,1
74,74,51,0.137424711671694,1
74,75,51,0.159903911134971,1
74,76,51,0.172395362307753,1
74,77,51,0.151930348503853,1
75,74,51,0.115688985775336,1
75,75,51,0.152512361234363,1
75,76,51,0.197756243175895,1
75,77,51,0.172997796124356,1
76,75,51,0.138441903164199,1
76,76,51,0.214489097401185,1
76,77,51,0.187515268707105,1
77,75,51,0.13077828409928,1
77,76,51,0.18099302818939,1
77,77,51,0.148858835791762,1
78,74,51,0.131795134062664,1
78,75,51,0.163559473975434,1
78,76,51,0.159763118698847,1
78,77,51,0.116824181467754,1
79,73,51,0.131099674779483,1
79,74,51,0.233371206164973,1
79,75,51,0.246439076056792,1
79,76,51,0.183350521277076,1
79,77,51,0.119820039590998,1
80,73,51,0.17176906856011,1
80,74,51,0.244055720970802,1
80,75,51,0.241447262863141,1
80,76,51,0.187690532030768,1
80,77,51,0.129140463531803,1
81,72,51,0.216324145147898,1
81,73,51,0.22957222464721,1
81,74,51,0.208518579513962,1
81,75,51,0.178462026531113,1
81,76,51,0.152074838875982,1
82,72,51,0.253655845485254,1
82,73,51,0.234345529864296,1
82,74,51,0.18686275965517,1
82,75,51,0.143501857306024,1
82,76,51,0.11436557220637,1
83,73,51,0.153761957405619,1
83,74,51,0.163554033063222,1
83,75,51,0.14333528530966,1
84,74,51,0.122767848099906,1
84,75,51,0.128092463757165,1
84,76,51,0.117959812904223,1
86,73,51,0.215545246767274,1
86,74,51,0.130702005336522,1
88,77,51,0.134179937703204,1
89,77,51,0.123478570201758,1
97,80,51,0.144291884825263,1
97,81,51,0.122134028934724,1
98,79,51,0.140323398871437,1
98,80,51,0.232558060657268,1
98,81,51,0.239540187802389,1
98,82,51,0.151258372291992,1
99,79,51,0.151021457073464,1
99,80,51,0.261907848565328,1
99,81,51,0.304376547303573,1
99,82,51,0.200521898894378,1
100,80,51,0.191761029200127,1
100,81,51,0.219329507202213,1
100,82,51,0.158329461884832,1
101,81,51,0.174642989010111,1
101,82,51,0.136167849173956,1
102,82,51,0.14940037143294,1
102,83,51,0.129910152403013,1
102,84,51,0.133450714144459,1
102,85,51,0.137687747979584,1
102,86,51,0.115981852885459,1
103,84,51,0.165909359207517,1
103,85,51,0.183768823789722,1
103,86,51,0.166955827989541,1
103,87,51,0.129434461221088,1
104,85,51,0.151568421849987,1
104,86,51,0.150640251689533,1
104,87,51,0.149791422277064,1
60,82,52,0.114220257453602,1
61,81,52,0.131218903773487,1
62,79,52,0.120584947054507,1
62,80,52,0.16664979434294,1
62,81,52,0.148130307068127,1
63,79,52,0.164933528069313,1
63,80,52,0.2194752341453,1
63,81,52,0.167186466138353,1
64,78,52,0.145418518735911,1
64,80,52,0.225915601888783,1
64,81,52,0.156808880020961,1
65,77,52,0.192864274254385,1
65,81,52,0.140041178048411,1
67,76,52,0.128877391893314,1
67,80,52,0.159886822902029,1
68,76,52,0.11751014859673,1
68,77,52,0.189146741543668,1
68,80,52,0.128712032914174,1
69,76,52,0.141557037388912,1
69,79,52,0.159185192540929,1
71,75,52,0.11478115426291,1
71,79,52,0.116663497904519,1
72,75,52,0.132369268069646,1
73,74,52,0.139173458542463,1
73,75,52,0.160593693968615,1
73,76,52,0.195728184368066,1
73,78,52,0.136075801187278,1
74,74,52,0.164129015004576,1
74,75,52,0.180244478793114,1
74,76,52,0.199870426206674,1
74,77,52,0.192024418814006,1
74,78,52,0.118090347689836,1
75,74,52,0.127900677490141,1
75,75,52,0.165928920582373,1
75,76,52,0.22628932896264,1
75,77,52,0.207566584753066,1
75,78,52,0.11445094270988,1
75,109,52,0.115967061141438,1
76,75,52,0.157247344528642,1
76,76,52,0.241677100185048,1
76,77,52,0.200786195326958,1
76,109,52,0.114789657160349,1
77,75,52,0.143141579413435,1
77,76,52,0.195089854663107,1
77,77,52,0.150355345741,1
78,74,52,0.124906515235638,1
78,75,52,0.154272307904944,1
78,76,52,0.161882189129123,1
78,77,52,0.117849110361391,1
79,73,52,0.123521543986737,1
79,74,52,0.193185759149518,1
79,75,52,0.222802269524607,1
79,76,52,0.186884381981621,1
79,77,52,0.124022261009462,1
80,73,52,0.158849775613012,1
80,74,52,0.226264314898706,1
80,75,52,0.262764615585656,1
80,76,52,0.212658760400975,1
80,77,52,0.138937956547886,1
81,72,52,0.208806500340257,1
81,73,52,0.207168762210844,1
81,74,52,0.205816660195671,1
81,75,52,0.207750068329378,1
81,76,52,0.174789245912179,1
81,77,52,0.126497181230615,1
82,71,52,0.144638101139539,1
82,72,52,0.25523027118166,1
82,73,52,0.233018559681719,1
82,74,52,0.19738679110449,1
82,75,52,0.158908848374166,1
82,76,52,0.125822272579056,1
83,72,52,0.160040522783573,1
83,73,52,0.181035589784049,1
83,74,52,0.18530027570115,1
83,75,52,0.147116024461588,1
84,73,52,0.11474331519162,1
84,74,52,0.135130954984201,1
84,75,52,0.128421744937761,1
85,73,52,0.126359462556584,1
86,72,52,0.150717590370254,1
86,73,52,0.204885746025378,1
86,74,52,0.129505216633571,1
87,73,52,0.1727857418705,1
87,77,52,0.117240741004194,1
88,77,52,0.142309414266722,1
89,76,52,0.129554337942736,1
89,77,52,0.150503993346918,1
90,76,52,0.127893540709188,1
90,77,52,0.138431586629356,1
91,77,52,0.124765911229374,1
97,80,52,0.129319142146682,1
97,81,52,0.121682303675635,1
98,79,52,0.128390913101896,1
98,80,52,0.198356415834176,1
98,81,52,0.215926935002721,1
98,82,52,0.145858278698881,1
99,79,52,0.156274704921194,1
99,80,52,0.239540070033726,1
99,81,52,0.279810357593709,1
99,82,52,0.201136839742948,1
100,80,52,0.167234692405683,1
100,81,52,0.19819441326192,1
100,82,52,0.169435494287796,1
101,81,52,0.153924925680908,1
101,82,52,0.136698455883247,1
102,82,52,0.14965062984094,1
102,83,52,0.11927378142645,1
102,84,52,0.123614004163735,1
102,85,52,0.148333469787957,1
102,86,52,0.129531431937863,1
103,83,52,0.144888076902748,1
103,84,52,0.17296986139759,1
103,85,52,0.219739200825624,1
103,86,52,0.19776611218982,1
103,87,52,0.136472304720479,1
104,85,52,0.175976954651245,1
104,86,52,0.161734507226238,1
104,87,52,0.151041077332651,1
104,88,52,0.154307556065656,1
104,89,52,0.129309956191,1
105,89,52,0.126161834963895,1
62,80,53,0.150941174176178,1
62,81,53,0.151876787316108,1
63,79,53,0.145686701534356,1
63,80,53,0.229189806246054,1
63,81,53,0.210315187569207,1
63,82,53,0.123567721079338,1
64,78,53,0.129132502370212,1
64,79,53,0.186888268347486,1
64,80,53,0.248877052248491,1
64,81,53,0.208242459107658,1
64,82,53,0.115443120138451,1
65,77,53,0.167919128542046,1
65,80,53,0.243521663639698,1
65,81,53,0.173555360080512,1
66,81,53,0.133302561166924,1
68,76,53,0.119405399683758,1
69,80,53,0.136638346757862,1
72,75,53,0.129841281289132,1
73,74,53,0.151329115927609,1
73,75,53,0.170799066970705,1
74,74,53,0.173686354163909,1
74,75,53,0.186948353919139,1
74,76,53,0.219465482900037,1
74,78,53,0.147855435009646,1
75,74,53,0.132485117103034,1
75,75,53,0.171920354184071,1
75,76,53,0.230919333271089,1
75,77,53,0.222669756225463,1
75,78,53,0.128445133794151,1
75,108,53,0.124073431493357,1
75,109,53,0.145281636219385,1
76,75,53,0.164018076924418,1
76,76,53,0.23319323416207,1
76,77,53,0.194986300678093,1
76,108,53,0.126450038434981,1
77,75,53,0.146687428967831,1
77,76,53,0.189339646612987,1
77,77,53,0.148184751520841,1
78,74,53,0.121075265104326,1
78,75,53,0.147615186937967,1
78,76,53,0.16049026952913,1
78,77,53,0.120474527156464,1
79,74,53,0.156447860185797,1
79,75,53,0.194882346279627,1
79,76,53,0.182442913525109,1
79,77,53,0.125897726961176,1
80,73,53,0.144071186351573,1
80,74,53,0.199741304645013,1
80,75,53,0.253426267254405,1
80,76,53,0.214752098378476,1
80,77,53,0.14178655673543,1
81,73,53,0.195759687485308,1
81,74,53,0.212733684824113,1
81,75,53,0.234319785634654,1
81,76,53,0.195070093081524,1
81,77,53,0.139048223346667,1
82,72,53,0.223975857801029,1
82,73,53,0.236359162010957,1
82,74,53,0.211153535570706,1
82,75,53,0.188427975842161,1
82,76,53,0.153488851877077,1
82,77,53,0.115026819693068,1
83,73,53,0.203112338396664,1
83,74,53,0.1922151333862,1
83,75,53,0.161524478593379,1
83,76,53,0.129460323219392,1
84,73,53,0.1331559745126,1
84,74,53,0.1448086183861,1
84,75,53,0.13912590355651,1
84,76,53,0.117417888626458,1
85,73,53,0.124948264226525,1
85,74,53,0.121458036811469,1
85,75,53,0.118828957410989,1
86,73,53,0.177135892506041,1
86,74,53,0.127720668089375,1
87,73,53,0.171142821919933,1
87,74,53,0.120165349086572,1
87,77,53,0.11652177509596,1
88,77,53,0.138457801933648,1
89,76,53,0.134408043825771,1
89,77,53,0.170206290184434,1
89,78,53,0.126901987454528,1
90,76,53,0.142134421810982,1
90,77,53,0.177076855075485,1
90,78,53,0.138467835823701,1
91,76,53,0.128399521991131,1
91,77,53,0.153285712710979,1
91,78,53,0.134568750942738,1
92,77,53,0.128063210021378,1
92,78,53,0.121569045552824,1
96,80,53,0.121769770461339,1
97,80,53,0.126489914904133,1
97,81,53,0.129564112741731,1
98,79,53,0.118804850165757,1
98,80,53,0.164876457375423,1
98,81,53,0.185315738726548,1
98,82,53,0.13611838633567,1
99,79,53,0.152364808877006,1
99,80,53,0.200491208380908,1
99,81,53,0.229685329670759,1
99,82,53,0.183921393092105,1
100,80,53,0.155529829907192,1
100,81,53,0.184287076566307,1
100,82,53,0.177470473276453,1
100,83,53,0.118679014349782,1
101,81,53,0.146683354172106,1
101,82,53,0.14377453886738,1
102,82,53,0.145064517913038,1
102,83,53,0.118075638383879,1
102,84,53,0.116480732717048,1
102,85,53,0.141837797880522,1
102,86,53,0.132950456419518,1
103,84,53,0.168588666942591,1
103,85,53,0.220497795888818,1
103,86,53,0.205491430257068,1
103,87,53,0.140146993191747,1
103,88,53,0.119576446889301,1
104,85,53,0.191734119060726,1
104,86,53,0.173126540826297,1
104,87,53,0.151598393974616,1
104,88,53,0.161980926375837,1
104,89,53,0.158009649304708,1
104,90,53,0.133395975270088,1
105,89,53,0.143673846660867,1
62,80,54,0.131070456374295,1
62,81,54,0.158555448171472,1
62,82,54,0.136010910654192,1
63,79,54,0.124690386186056,1
63,80,54,0.22030227635519,1
63,81,54,0.257784037522415,1
63,82,54,0.180806400189787,1
64,79,54,0.167343899286501,1
64,80,54,0.255313698502237,1
64,81,54,0.264929109389092,1
64,82,54,0.163689396364001,1
65,80,54,0.244626946091819,1
65,81,54,0.210457946741996,1
65,82,54,0.120065834566685,1
66,81,54,0.163306400896399,1
67,81,54,0.13383009411412,1
68,76,54,0.115842909417338,1
68,81,54,0.125010822940092,1
72,75,54,0.127761015633178,1
72,79,54,0.116696944204694,1
73,74,54,0.157529553574802,1
73,75,54,0.169302439252804,1
74,74,54,0.173684823171295,1
74,75,54,0.183527598238143,1
74,109,54,0.117731153268942,1
75,74,54,0.134873512687783,1
75,75,54,0.172185616319684,1
75,76,54,0.217049623663173,1
75,78,54,0.145781411092809,1
75,108,54,0.125736148356105,1
75,109,54,0.157569147399164,1
76,75,54,0.158446936125763,1
76,76,54,0.205489781495792,1
76,77,54,0.188768763021092,1
76,78,54,0.124045084576272,1
76,108,54,0.132061515000571,1
76,109,54,0.179944851761758,1
77,75,54,0.138911058185351,1
77,76,54,0.171888580198905,1
77,77,54,0.149330087095108,1
78,74,54,0.114961658292059,1
78,75,54,0.136975824637374,1
78,76,54,0.152680994182322,1
78,77,54,0.12304387429128,1
79,74,54,0.128062597624333,1
79,75,54,0.16280855742904,1
79,76,54,0.168462042076576,1
79,77,54,0.125992707387553,1
80,73,54,0.126597790999064,1
80,74,54,0.168131265233965,1
80,75,54,0.213111533801161,1
80,76,54,0.196933228654265,1
80,77,54,0.141561795242881,1
81,73,54,0.189641028397416,1
81,74,54,0.218986070228374,1
81,75,54,0.237654122671042,1
81,76,54,0.206934967861874,1
81,77,54,0.151746770712611,1
82,72,54,0.188948277793475,1
82,73,54,0.248523840475657,1
82,74,54,0.236739154377664,1
82,75,54,0.218989391304659,1
82,76,54,0.195931370641629,1
82,77,54,0.144018284668338,1
83,73,54,0.212569138448746,1
83,74,54,0.194177771701962,1
83,75,54,0.182006863275011,1
83,76,54,0.168731284792985,1
83,77,54,0.118841005145172,1
84,73,54,0.147651165264387,1
84,74,54,0.150586867154782,1
84,75,54,0.15223803091173,1
84,76,54,0.134438333925788,1
85,73,54,0.130157266387721,1
85,74,54,0.135835576669331,1
85,75,54,0.131080195842691,1
86,73,54,0.147708330173208,1
86,74,54,0.137718626922915,1
87,73,54,0.161747226241798,1
87,74,54,0.143126905438076,1
88,77,54,0.126421903501488,1
89,76,54,0.127371484004802,1
89,77,54,0.179941695561601,1
89,78,54,0.137798038332098,1
90,76,54,0.14665406510572,1
90,77,54,0.22099159989105,1
90,78,54,0.179092630611806,1
91,76,54,0.139417110128491,1
91,77,54,0.190779521612387,1
91,78,54,0.172173910114623,1
92,76,54,0.13426658010827,1
92,77,54,0.15860314447982,1
92,78,54,0.14890316391636,1
93,76,54,0.126013705540092,1
93,77,54,0.142106616629745,1
93,78,54,0.126122476676859,1
94,77,54,0.12519192758942,1
94,78,54,0.123953307457517,1
95,77,54,0.121299331761765,1
95,78,54,0.131966699450322,1
95,79,54,0.126596495543775,1
95,80,54,0.11568154279586,1
96,79,54,0.114965662426587,1
96,80,54,0.132633729378354,1
96,81,54,0.120115073644513,1
97,80,54,0.127665893884405,1
97,81,54,0.147343070666191,1
97,82,54,0.116927323262448,1
98,80,54,0.137963279542575,1
98,81,54,0.163535932019783,1
98,82,54,0.13660404074645,1
99,80,54,0.160170292072878,1
99,81,54,0.179317027021501,1
99,82,54,0.160852961679302,1
100,81,54,0.164134915214571,1
100,82,54,0.170725496887186,1
100,83,54,0.129995475799058,1
101,82,54,0.147791569063925,1
101,83,54,0.131176789699745,1
102,83,54,0.12952004370819,1
102,84,54,0.122165932465419,1
102,85,54,0.141162217947586,1
102,86,54,0.147871039357439,1
102,87,54,0.120380971730904,1
103,84,54,0.165868104845012,1
103,85,54,0.208092892906172,1
103,86,54,0.20323860995669,1
103,87,54,0.155296777500796,1
103,88,54,0.12931061569551,1
103,89,54,0.123329204206998,1
104,86,54,0.189404289831882,1
104,87,54,0.160648703710909,1
104,88,54,0.164285588441486,1
104,89,54,0.184830684935947,1
104,90,54,0.163175559912263,1
105,89,54,0.165598131962896,1
62,81,55,0.158726801575537,1
62,82,55,0.171592203582636,1
62,83,55,0.132455156755272,1
63,80,55,0.192485012053387,1
63,81,55,0.280144820595459,1
63,82,55,0.24408339660651,1
63,83,55,0.141210503099247,1
64,79,55,0.145416858197768,1
64,80,55,0.237851338073412,1
64,81,55,0.290889020559488,1
64,82,55,0.205415139717444,1
65,78,55,0.162640124687807,1
65,79,55,0.185929337012364,1
65,80,55,0.228245772646749,1
65,81,55,0.230096601394249,1
65,82,55,0.145227144659205,1
66,77,55,0.165581196829215,1
66,80,55,0.21189978847806,1
66,81,55,0.189893018004756,1
66,82,55,0.117776388212242,1
67,81,55,0.167515535335357,1
72,75,55,0.131736261508236,1
73,75,55,0.162352156754047,1
73,79,55,0.136174832855648,1
74,74,55,0.174592301377733,1
74,75,55,0.173122395369374,1
74,79,55,0.127029154056391,1
74,108,55,0.11808715615908,1
74,109,55,0.128854144359319,1
75,74,55,0.138051240956662,1
75,75,55,0.163420495176714,1
75,76,55,0.194505474782479,1
75,78,55,0.172156397914496,1
75,108,55,0.116619146226188,1
75,109,55,0.152236876778837,1
76,75,55,0.146032540988912,1
76,76,55,0.177303618635299,1
76,77,55,0.185423838581937,1
76,78,55,0.143396183485084,1
76,108,55,0.11891756655272,1
76,109,55,0.173685258915347,1
77,75,55,0.132502158228511,1
77,76,55,0.162762345005841,1
77,77,55,0.157717241492368,1
77,78,55,0.11735269189485,1
78,75,55,0.132631644873026,1
78,76,55,0.154004125106498,1
78,77,55,0.136081571851745,1
79,75,55,0.140307500101988,1
79,76,55,0.155697791573775,1
79,77,55,0.129816808961046,1
80,74,55,0.138057565133843,1
80,75,55,0.167507079545383,1
80,76,55,0.175058900818907,1
80,77,55,0.144305875742378,1
81,73,55,0.171997139352078,1
81,74,55,0.214910096816204,1
81,75,55,0.216885619023653,1
81,76,55,0.216045033417565,1
81,77,55,0.176924038458911,1
82,72,55,0.152014176237883,1
82,73,55,0.246501234356906,1
82,74,55,0.264609862098549,1
82,75,55,0.23517476257131,1
82,76,55,0.239934123978746,1
82,77,55,0.185817609882166,1
83,73,55,0.199738077783658,1
83,74,55,0.195418123033204,1
83,75,55,0.197685888176865,1
83,76,55,0.212338500299933,1
83,77,55,0.145845512575856,1
84,73,55,0.153202862456848,1
84,74,55,0.150533129314043,1
84,75,55,0.167490073750505,1
84,76,55,0.164159823286709,1
85,73,55,0.135561269900431,1
85,74,55,0.142984723331734,1
85,75,55,0.145129785305844,1
85,76,55,0.128082194329787,1
86,73,55,0.129692857443672,1
86,74,55,0.14961241390993,1
86,75,55,0.138632205546075,1
87,73,55,0.142757818449526,1
87,74,55,0.162419037577531,1
87,75,55,0.142363835165704,1
88,74,55,0.131557830207549,1
89,77,55,0.167191082669927,1
89,78,55,0.134855670735401,1
90,76,55,0.130253448054457,1
90,77,55,0.226496625362527,1
90,78,55,0.193777464240959,1
91,76,55,0.131808182830478,1
91,77,55,0.206262697228357,1
91,78,55,0.193219664747477,1
91,79,55,0.117887467614795,1
92,76,55,0.142585887979013,1
92,77,55,0.175649510661785,1
92,78,55,0.163913804550562,1
92,79,55,0.12337295526515,1
93,76,55,0.14504250695,1
93,77,55,0.165063815540734,1
93,78,55,0.1378797815608,1
94,77,55,0.14819507983255,1
94,78,55,0.131946490347822,1
95,77,55,0.156091339113545,1
95,78,55,0.150240839270366,1
95,79,55,0.121251246816831,1
96,77,55,0.129848865591002,1
96,78,55,0.128611305377063,1
96,79,55,0.117168607698358,1
96,80,55,0.133365532070809,1
96,81,55,0.13466466174155,1
97,80,55,0.133506948680845,1
97,81,55,0.169837014766023,1
97,82,55,0.150054882552139,1
98,80,55,0.127665823223208,1
98,81,55,0.160806407726981,1
98,82,55,0.154406787940753,1
99,80,55,0.136124663405385,1
99,81,55,0.150580578308199,1
99,82,55,0.147893768709319,1
99,83,55,0.115086175099013,1
100,81,55,0.143408902500643,1
100,82,55,0.151549237334852,1
100,83,55,0.133825265598954,1
101,82,55,0.151207967304404,1
101,83,55,0.150375872818889,1
101,86,55,0.115078155053091,1
102,83,55,0.156975110488204,1
102,84,55,0.131393001187391,1
102,85,55,0.140562669463217,1
102,86,55,0.178294512385448,1
102,87,55,0.163283224023601,1
103,84,55,0.153322715624764,1
103,85,55,0.180342167898731,1
103,86,55,0.195527341690889,1
103,87,55,0.174588838979053,1
103,88,55,0.136419897665627,1
103,89,55,0.130750090281457,1
103,90,55,0.121583060023672,1
104,87,55,0.169569008620572,1
104,88,55,0.163341189759327,1
104,89,55,0.197333477230937,1
53,108,56,0.135139917179424,1
62,81,56,0.154815904497717,1
62,82,56,0.204625147528804,1
62,83,56,0.158389747663211,1
63,80,56,0.159424062719256,1
63,81,56,0.267056270526489,1
63,82,56,0.287479570670101,1
63,83,56,0.173811212499985,1
64,79,56,0.122018839405847,1
64,80,56,0.204464016444651,1
64,81,56,0.272939333404874,1
64,82,56,0.226973376462416,1
64,83,56,0.122196458102762,1
65,78,56,0.13044363266767,1
65,79,56,0.152005579125514,1
65,80,56,0.196591770193957,1
65,81,56,0.220710792291975,1
65,82,56,0.161924385640929,1
66,78,56,0.20202059934074,1
66,79,56,0.18501712450569,1
66,80,56,0.188445605810951,1
66,81,56,0.201694168161779,1
66,82,56,0.147755732059899,1
67,77,56,0.140917094253276,1
67,81,56,0.19586378320617,1
67,82,56,0.129738681230285,1
72,75,56,0.132475919370486,1
73,75,56,0.150299853147188,1
74,75,56,0.154822935286874,1
74,108,56,0.117020360505893,1
74,109,56,0.131726486709241,1
75,75,56,0.144143625855931,1
75,76,56,0.172114908014666,1
75,79,56,0.146111281116718,1
76,75,56,0.132357479426521,1
76,76,56,0.159254381630199,1
76,77,56,0.181488940250681,1
76,78,56,0.157044005155818,1
77,75,56,0.133931057188557,1
77,76,56,0.16251838722129,1
77,77,56,0.163715717660089,1
77,78,56,0.132585173358769,1
78,75,56,0.131594409154149,1
78,76,56,0.153915398196104,1
78,77,56,0.147385903128774,1
78,78,56,0.130605847223519,1
79,75,56,0.121241943092486,1
79,76,56,0.13782963566427,1
79,77,56,0.128690811001176,1
80,75,56,0.13250977786098,1
80,76,56,0.151502235861613,1
80,77,56,0.146929737991106,1
81,73,56,0.144142448169305,1
81,74,56,0.194900082240212,1
81,75,56,0.187568441258263,1
81,76,56,0.209985082007973,1
81,77,56,0.206442600637326,1
81,78,56,0.145087883215695,1
82,73,56,0.219618582161402,1
82,74,56,0.276217000160825,1
82,75,56,0.237736207428866,1
82,76,56,0.254527993092915,1
82,77,56,0.221175483880815,1
82,78,56,0.13752800656565,1
83,73,56,0.180515099402875,1
83,74,56,0.207277415578947,1
83,75,56,0.210361988835719,1
83,76,56,0.234420030320249,1
83,77,56,0.164866117286847,1
84,73,56,0.148711354095603,1
84,74,56,0.150483619368291,1
84,75,56,0.182878916667742,1
84,76,56,0.199946481208974,1
84,77,56,0.125880862488693,1
85,73,56,0.128954836565832,1
85,74,56,0.140719690421046,1
85,75,56,0.1661042663441,1
85,76,56,0.165780320083919,1
86,74,56,0.147751928132098,1
86,75,56,0.165435587654792,1
86,76,56,0.13394656732142,1
87,74,56,0.1563602167471,1
87,75,56,0.1682207458638,1
87,76,56,0.120616591494144,1
88,75,56,0.127302389130461,1
89,77,56,0.144101123145603,1
89,78,56,0.127721009618496,1
90,77,56,0.200233177241178,1
90,78,56,0.186544678274386,1
91,76,56,0.124060677147198,1
91,77,56,0.208088229267133,1
91,78,56,0.202121197332323,1
91,79,56,0.122692676362576,1
92,76,56,0.142765284982734,1
92,77,56,0.192704909700171,1
92,78,56,0.178026129380276,1
92,79,56,0.126886288891805,1
93,76,56,0.147456352342734,1
93,77,56,0.178954158218335,1
93,78,56,0.147978950782968,1
93,79,56,0.115886307169502,1
94,77,56,0.155481415210002,1
94,78,56,0.130962391849504,1
95,77,56,0.166773168793867,1
95,78,56,0.148789128520376,1
96,78,56,0.14232216861288,1
96,80,56,0.122585459772156,1
96,81,56,0.139754611561736,1
96,82,56,0.119157319996017,1
97,80,56,0.133757666386628,1
97,81,56,0.182608095851255,1
97,82,56,0.176115073738728,1
98,80,56,0.123648616373669,1
98,81,56,0.165147019100852,1
98,82,56,0.178214712339678,1
98,83,56,0.138658350189169,1
99,80,56,0.122264516612872,1
99,81,56,0.137010425070442,1
99,82,56,0.14558841180856,1
99,83,56,0.141345937061223,1
99,84,56,0.117445823353224,1
100,81,56,0.123543802263966,1
100,82,56,0.128075681722746,1
100,83,56,0.135149597763488,1
100,84,56,0.123181392758584,1
101,82,56,0.139929863108533,1
101,83,56,0.150373329015777,1
101,84,56,0.122849732651004,1
101,86,56,0.133608571259792,1
101,87,56,0.120083829618329,1
102,84,56,0.13959644824788,1
102,85,56,0.143477231878677,1
102,86,56,0.205504761669673,1
102,87,56,0.200910841679441,1
102,88,56,0.124797355462285,1
103,85,56,0.153505610357763,1
103,86,56,0.188346173729128,1
103,87,56,0.189810709486473,1
103,88,56,0.142568740861741,1
103,89,56,0.134513446778787,1
103,90,56,0.142946648723119,1
103,91,56,0.136597009957293,1
53,107,57,0.114037515819864,1
53,108,57,0.154185382855087,1
53,109,57,0.125444023188555,1
62,81,57,0.150427773468492,1
62,82,57,0.213827920575683,1
62,83,57,0.167275534577869,1
63,80,57,0.136784945189051,1
63,81,57,0.230250077515334,1
63,82,57,0.285869885036116,1
63,83,57,0.190007300714931,1
64,80,57,0.17209707783915,1
64,81,57,0.227996055974597,1
64,82,57,0.222860800549914,1
64,83,57,0.140197680824124,1
65,79,57,0.128007988295491,1
65,80,57,0.165627597682275,1
65,81,57,0.193961972404635,1
65,82,57,0.171573007290634,1
66,78,57,0.151890318935439,1
66,79,57,0.152299305946875,1
66,80,57,0.16650964963446,1
66,81,57,0.198648011042744,1
66,82,57,0.175827953739339,1
67,78,57,0.171639711461124,1
67,79,57,0.186502905729766,1
67,80,57,0.213847917694591,1
67,81,57,0.224512623811373,1
67,82,57,0.169237784257043,1
68,77,57,0.140922488058022,1
68,81,57,0.232917608384149,1
68,82,57,0.130116365331205,1
70,76,57,0.147386833501209,1
70,81,57,0.132007200093386,1
71,76,57,0.165939248894082,1
71,80,57,0.14412172088469,1
72,76,57,0.184470854564275,1
72,79,57,0.175337046846207,1
73,75,57,0.142380770299384,1
73,76,57,0.191818358985075,1
73,79,57,0.192509107521753,1
73,80,57,0.114006495554139,1
74,75,57,0.136984998816189,1
74,76,57,0.179041566119708,1
74,79,57,0.25576213801564,1
74,80,57,0.131756906354788,1
74,109,57,0.117843410358121,1
75,75,57,0.126180336420788,1
75,76,57,0.158517844637508,1
75,77,57,0.224258667467368,1
75,78,57,0.269181641580214,1
75,79,57,0.214565976784122,1
75,109,57,0.130081482253346,1
76,75,57,0.12358257170769,1
76,76,57,0.151753589518174,1
76,77,57,0.181439383197464,1
76,78,57,0.175146508927006,1
76,79,57,0.129395809546026,1
77,75,57,0.137323937027118,1
77,76,57,0.163632502323105,1
77,77,57,0.168647939910471,1
77,78,57,0.148235580475614,1
78,75,57,0.129388248797888,1
78,76,57,0.148373935100422,1
78,77,57,0.156466444080754,1
78,78,57,0.159107429893022,1
78,79,57,0.124115227591709,1
79,76,57,0.121066420677765,1
79,77,57,0.126657735248321,1
79,78,57,0.126552720931891,1
80,76,57,0.131784110915845,1
80,77,57,0.145733055279951,1
80,78,57,0.128303658299784,1
81,74,57,0.160320364679614,1
81,75,57,0.164644947738507,1
81,76,57,0.191882519352453,1
81,77,57,0.220138813451518,1
81,78,57,0.18032592760016,1
82,73,57,0.171832993390163,1
82,74,57,0.249010437035738,1
82,75,57,0.227942541894317,1
82,76,57,0.233623560855166,1
82,77,57,0.226291754997089,1
82,78,57,0.164792935839915,1
83,73,57,0.158815775800123,1
83,74,57,0.211067682215679,1
83,75,57,0.210035840301548,1
83,76,57,0.215182637055165,1
83,77,57,0.161491291384261,1
84,73,57,0.138128002570937,1
84,74,57,0.152572376144817,1
84,75,57,0.189022366059109,1
84,76,57,0.208457504685544,1
84,77,57,0.133555174948175,1
85,74,57,0.139715830341146,1
85,75,57,0.196119046782329,1
85,76,57,0.205531565817278,1
85,77,57,0.128148816062214,1
86,74,57,0.142098996997276,1
86,75,57,0.192415481434995,1
86,76,57,0.163771292691965,1
87,74,57,0.137736021354379,1
87,75,57,0.172180516936594,1
87,76,57,0.126377328062699,1
88,74,57,0.116716929546735,1
88,75,57,0.128783082748314,1
89,77,57,0.117482166762499,1
89,78,57,0.121727161759215,1
90,77,57,0.151908949937861,1
90,78,57,0.163149109070646,1
91,77,57,0.181920609506531,1
91,78,57,0.188876403578698,1
91,79,57,0.11936116577409,1
92,76,57,0.128066813742453,1
92,77,57,0.196142894936503,1
92,78,57,0.185042692082337,1
92,79,57,0.120129512082547,1
93,76,57,0.128544448107312,1
93,77,57,0.176747986085209,1
93,78,57,0.153231963093374,1
94,77,57,0.144312824093471,1
94,78,57,0.124806965385152,1
95,77,57,0.148076439681859,1
95,78,57,0.134014720046459,1
96,78,57,0.144826589884011,1
96,81,57,0.138629437982504,1
96,82,57,0.1275851987968,1
97,80,57,0.134264154073821,1
97,81,57,0.184195264116953,1
97,82,57,0.185290807100678,1
97,83,57,0.127594160992023,1
98,80,57,0.128756820336556,1
98,81,57,0.173875419974828,1
98,82,57,0.194315066408807,1
98,83,57,0.171890806026628,1
98,84,57,0.116040171927173,1
99,81,57,0.134850536021712,1
99,82,57,0.148905790157536,1
99,83,57,0.166040058869257,1
99,84,57,0.156967526186333,1
100,82,57,0.117448096288412,1
100,83,57,0.135879940124528,1
100,84,57,0.151111644315274,1
100,85,57,0.131251513916158,1
101,83,57,0.13781405487021,1
101,84,57,0.1308864781696,1
101,85,57,0.127473707203928,1
101,86,57,0.144832678523867,1
101,87,57,0.128261650217839,1
102,84,57,0.151414003579602,1
102,85,57,0.15391100542499,1
102,86,57,0.215007562161362,1
102,87,57,0.211652003211975,1
102,88,57,0.138547647646337,1
102,90,57,0.121120205625969,1
102,91,57,0.128191848731523,1
103,86,57,0.192419473792657,1
103,87,57,0.19943011273099,1
103,88,57,0.148842901691714,1
53,108,58,0.142571755739503,1
53,109,58,0.122771263391121,1
62,81,58,0.141031942253031,1
62,82,58,0.188843887650957,1
62,83,58,0.157772910739174,1
63,81,58,0.184792115698949,1
63,82,58,0.238125786164707,1
63,83,58,0.185433943133187,1
64,80,58,0.135864241561805,1
64,81,58,0.17411241763142,1
64,82,58,0.195499583617117,1
64,83,58,0.152585613342492,1
65,80,58,0.128357749446511,1
65,81,58,0.156010632249073,1
65,82,58,0.167306743273454,1
65,83,58,0.127685537697325,1
66,79,58,0.11957811920431,1
66,80,58,0.140303024892809,1
66,81,58,0.176815879719191,1
66,82,58,0.182690781229258,1
66,83,58,0.125086218437881,1
67,78,58,0.128923133241863,1
67,79,58,0.160558198493711,1
67,80,58,0.201389500631664,1
67,81,58,0.228038405585664,1
67,82,58,0.191375301499553,1
68,78,58,0.163575137207558,1
68,79,58,0.209251077041527,1
68,80,58,0.25804164469496,1
68,81,58,0.239526997712179,1
68,82,58,0.15355296513699,1
69,77,58,0.16533939421119,1
69,78,58,0.237977209219986,1
69,79,58,0.265743668120749,1
69,80,58,0.272618413799322,1
69,81,58,0.204370249035498,1
70,77,58,0.21397458966807,1
70,78,58,0.290821892421813,1
70,79,58,0.2892688299608,1
70,80,58,0.251493730608801,1
70,81,58,0.165162458572518,1
71,76,58,0.16263608522268,1
71,77,58,0.221825684666963,1
71,78,58,0.269726156768556,1
71,79,58,0.253865143952405,1
71,80,58,0.199924270039209,1
71,81,58,0.121554300916268,1
72,76,58,0.178619671662853,1
72,77,58,0.201098093852956,1
72,78,58,0.216666899063494,1
72,79,58,0.195144581760611,1
72,80,58,0.140475202677513,1
73,76,58,0.173362478564926,1
73,77,58,0.192070007063293,1
73,78,58,0.2211393289014,1
73,79,58,0.202011554707454,1
73,80,58,0.128015384167501,1
74,75,58,0.124894538162652,1
74,76,58,0.153772603692717,1
74,77,58,0.217915152671997,1
74,78,58,0.309864826071231,1
74,79,58,0.288193978931092,1
74,80,58,0.1568173829184,1
75,75,58,0.114539622512808,1
75,76,58,0.143029298770523,1
75,77,58,0.215948298238115,1
75,78,58,0.293435296813302,1
75,79,58,0.260870353755393,1
75,80,58,0.141858136528551,1
76,75,58,0.119470513977303,1
76,76,58,0.143915602171428,1
76,77,58,0.174379575842501,1
76,78,58,0.186973473974869,1
76,79,58,0.158762721017627,1
77,75,58,0.135488783288608,1
77,76,58,0.158825903905105,1
77,77,58,0.17077975291004,1
77,78,58,0.162288691221778,1
77,79,58,0.128548770217229,1
78,75,58,0.120837266414102,1
78,76,58,0.138664815688746,1
78,77,58,0.159928230363795,1
78,78,58,0.169485145555943,1
78,79,58,0.134811754801122,1
79,77,58,0.122562742197143,1
79,78,58,0.1325698398789,1
80,77,58,0.136801456355546,1
80,78,58,0.137429375310733,1
81,74,58,0.121136481255139,1
81,75,58,0.142979753494173,1
81,76,58,0.162356431756499,1
81,77,58,0.202182013069684,1
81,78,58,0.191379352741546,1
82,74,58,0.193544258735302,1
82,75,58,0.206634916863332,1
82,76,58,0.195331292198278,1
82,77,58,0.202781973744372,1
82,78,58,0.17526199287754,1
83,74,58,0.193958969303739,1
83,75,58,0.198388425356667,1
83,76,58,0.178849779852684,1
83,77,58,0.146833485663173,1
84,74,58,0.149696583173082,1
84,75,58,0.183907508166786,1
84,76,58,0.191020935593826,1
84,77,58,0.130351042945144,1
85,74,58,0.13906285021456,1
85,75,58,0.223443378570004,1
85,76,58,0.23553944501188,1
85,77,58,0.140994197396672,1
86,74,58,0.1344678231989,1
86,75,58,0.220554371954326,1
86,76,58,0.212562237205118,1
86,77,58,0.124538947462834,1
87,74,58,0.115583535714854,1
87,75,58,0.163945990726048,1
87,76,58,0.143449120498917,1
88,75,58,0.117837333495132,1
90,78,58,0.135516871114635,1
91,77,58,0.141734903400019,1
91,78,58,0.158280835204049,1
92,77,58,0.174064250248421,1
92,78,58,0.173929004716305,1
93,77,58,0.157399348541445,1
93,78,58,0.149198433507201,1
94,77,58,0.119908295426741,1
96,81,58,0.126565534162381,1
96,82,58,0.125735465297862,1
97,80,58,0.129275438195995,1
97,81,58,0.17181546941317,1
97,82,58,0.179087543005583,1
97,83,58,0.143535833565181,1
98,80,58,0.129858734604927,1
98,81,58,0.171115923557397,1
98,82,58,0.190850112148742,1
98,83,58,0.188671957180445,1
98,84,58,0.135797513837582,1
99,81,58,0.129087173211982,1
99,82,58,0.143685882618184,1
99,83,58,0.173743766386921,1
99,84,58,0.175096645675266,1
99,85,58,0.131231210598727,1
100,83,58,0.131900678338075,1
100,84,58,0.164861300548548,1
100,85,58,0.16542448206991,1
100,86,58,0.12858030866507,1
101,83,58,0.12284712996356,1
101,84,58,0.136963140952413,1
101,85,58,0.146400780043092,1
101,86,58,0.152035657241939,1
101,87,58,0.128882656152532,1
102,85,58,0.156571340628521,1
102,86,58,0.192984304075295,1
102,87,58,0.190127613180631,1
102,88,58,0.143384489056889,1
102,89,58,0.119075247015059,1
102,90,58,0.133322994029883,1
102,91,58,0.159362198840798,1
103,87,58,0.18891599740306,1
103,88,58,0.154937547749304,1
103,90,58,0.164650494642515,1
57,88,59,0.122582103365273,1
57,89,59,0.120544952816692,1
62,82,59,0.147871769523147,1
62,83,59,0.134175003196242,1
63,81,59,0.152577487304774,1
63,82,59,0.178280709898192,1
63,83,59,0.163837572895269,1
64,81,59,0.135023090666136,1
64,82,59,0.161778411383651,1
64,83,59,0.155623397109618,1
65,81,59,0.129421801089859,1
65,82,59,0.157179709985718,1
65,83,59,0.139823659328611,1
66,80,59,0.123388948249529,1
66,81,59,0.154272472781071,1
66,82,59,0.171994124474316,1
66,83,59,0.133047003169108,1
67,79,59,0.141363614137478,1
67,80,59,0.181135245626331,1
67,81,59,0.208671207700676,1
67,82,59,0.187425528986212,1
67,83,59,0.123329004000272,1
68,78,59,0.137432213535501,1
68,79,59,0.173605235109118,1
68,80,59,0.214308063413055,1
68,81,59,0.219582709826777,1
68,82,59,0.161179710833652,1
69,77,59,0.135746837982071,1
69,78,59,0.188181179832842,1
69,79,59,0.210804681238387,1
69,80,59,0.218641879535095,1
69,81,59,0.184956391206393,1
69,82,59,0.119189647493897,1
70,77,59,0.169801189538864,1
70,78,59,0.223917067684665,1
70,79,59,0.252489134898727,1
70,80,59,0.24661728359702,1
70,81,59,0.175510896945919,1
71,77,59,0.195707716174508,1
71,78,59,0.227294908465014,1
71,79,59,0.251050190271762,1
71,80,59,0.235785581516689,1
71,81,59,0.152859248830015,1
72,76,59,0.174522052370499,1
72,77,59,0.197936429229654,1
72,78,59,0.212556254557058,1
72,79,59,0.209378973809097,1
72,80,59,0.169914930513192,1
72,107,59,0.114171642549686,1
73,76,59,0.157995740825656,1
73,77,59,0.181456471430406,1
73,78,59,0.21634006747108,1
73,79,59,0.20434921555236,1
73,80,59,0.140577755628895,1
74,76,59,0.138503990803115,1
74,77,59,0.194297071357163,1
74,78,59,0.28277666755951,1
74,79,59,0.275061666027104,1
74,80,59,0.167371280500553,1
75,75,59,0.12422001814768,1
75,76,59,0.140587659973418,1
75,77,59,0.199722084799278,1
75,78,59,0.279252063471845,1
75,79,59,0.27181690383548,1
75,80,59,0.166347293756216,1
76,75,59,0.127235779174901,1
76,76,59,0.143278532591158,1
76,77,59,0.172248457678041,1
76,78,59,0.201707782219174,1
76,79,59,0.19216760195398,1
76,80,59,0.125789097146804,1
77,75,59,0.127237981448892,1
77,76,59,0.1480030580282,1
77,77,59,0.170005459284123,1
77,78,59,0.174085213070362,1
77,79,59,0.147501657947232,1
78,76,59,0.128968603722488,1
78,77,59,0.154319321155049,1
78,78,59,0.157931969094865,1
78,79,59,0.129541430497316,1
79,77,59,0.119453331529431,1
79,78,59,0.128927949980163,1
79,79,59,0.115543176394185,1
80,77,59,0.12672793714809,1
80,78,59,0.142543985888865,1
80,79,59,0.119276219237765,1
81,75,59,0.123674749239897,1
81,76,59,0.137481275960335,1
81,77,59,0.168068129453952,1
81,78,59,0.177586840491956,1
81,79,59,0.119230454335484,1
82,74,59,0.141089460467839,1
82,75,59,0.174451414726679,1
82,76,59,0.161005613419749,1
82,77,59,0.165731151667289,1
82,78,59,0.157441521499517,1
83,74,59,0.158095055138817,1
83,75,59,0.174100982294282,1
83,76,59,0.147606919577853,1
83,77,59,0.129133409188914,1
84,74,59,0.140187788256467,1
84,75,59,0.168335511425492,1
84,76,59,0.161915140800915,1
84,77,59,0.12142315373361,1
85,74,59,0.133315739480267,1
85,75,59,0.217251455597116,1
85,76,59,0.237210252581748,1
85,77,59,0.15225767472465,1
86,74,59,0.1216371158398,1
86,75,59,0.222824739785429,1
86,76,59,0.261546722738368,1
86,77,59,0.170070090726151,1
87,75,59,0.147492731082608,1
87,76,59,0.17005567584185,1
87,77,59,0.124979284492251,1
91,78,59,0.121924070963062,1
92,77,59,0.130864208115504,1
92,78,59,0.142053691392778,1
93,77,59,0.125687097708137,1
93,78,59,0.13363942664939,1
96,81,59,0.114940189064869,1
96,82,59,0.121566336873585,1
97,80,59,0.121193634387093,1
97,81,59,0.1533495786567,1
97,82,59,0.168109042287335,1
97,83,59,0.155021151722875,1
98,80,59,0.125819375469956,1
98,81,59,0.157866595710262,1
98,82,59,0.176268090562029,1
98,83,59,0.186099053432019,1
98,84,59,0.145491099562664,1
99,81,59,0.125093119681508,1
99,82,59,0.137500036508285,1
99,83,59,0.163412298477798,1
99,84,59,0.165475452347078,1
99,85,59,0.13517581306778,1
100,83,59,0.128436089160864,1
100,84,59,0.160590902851311,1
100,85,59,0.174926740825751,1
100,86,59,0.14591047377014,1
101,83,59,0.114221152495438,1
101,84,59,0.138423083731917,1
101,85,59,0.152603031327689,1
101,86,59,0.146118747649926,1
101,87,59,0.119083632143835,1
101,92,59,0.12243781319987,1
102,85,59,0.145152879740577,1
102,86,59,0.15114061540627,1
102,87,59,0.149485600614055,1
102,88,59,0.137554869597586,1
102,89,59,0.122163812629493,1
102,90,59,0.135470222947384,1
103,87,59,0.163586607875294,1
103,88,59,0.165893625314195,1
103,89,59,0.155258278924996,1
57,88,60,0.115793446579051,1
57,89,60,0.121590161474027,1
63,82,60,0.130655074524481,1
63,83,60,0.132618572551479,1
64,82,60,0.129505251964169,1
64,83,60,0.144916871340751,1
64,84,60,0.114153305968921,1
65,82,60,0.13351700612463,1
65,83,60,0.136982584558606,1
66,81,60,0.127744881326403,1
66,82,60,0.147094355027671,1
66,83,60,0.128743606692614,1
67,79,60,0.115810252167202,1
67,80,60,0.147899221398396,1
67,81,60,0.169875843094079,1
67,82,60,0.161927694940347,1
67,83,60,0.12055559910379,1
68,79,60,0.137301031022244,1
68,80,60,0.165462109157606,1
68,81,60,0.176964480217644,1
68,82,60,0.148705206571416,1
69,78,60,0.136816754504816,1
69,79,60,0.156547763342271,1
69,80,60,0.16698183131024,1
69,81,60,0.155077080060738,1
69,82,60,0.121026756192206,1
70,77,60,0.126538777122241,1
70,78,60,0.161096601488464,1
70,79,60,0.194409834851591,1
70,80,60,0.206181177760114,1
70,81,60,0.161401339679777,1
71,77,60,0.164412083761972,1
71,78,60,0.186520794789613,1
71,79,60,0.219810333097827,1
71,80,60,0.226931851231987,1
71,81,60,0.159771515604489,1
72,77,60,0.188488049636947,1
72,78,60,0.197505125056659,1
72,79,60,0.201359234085379,1
72,80,60,0.177603622526375,1
72,81,60,0.115507586704351,1
72,107,60,0.116502260828569,1
73,76,60,0.134903661465406,1
73,77,60,0.164714231042708,1
73,78,60,0.193071806191598,1
73,79,60,0.187542426160697,1
73,80,60,0.139985296818013,1
74,76,60,0.119336363693749,1
74,77,60,0.156900068296403,1
74,78,60,0.217330242832387,1
74,79,60,0.220172495289018,1
74,80,60,0.153759295833844,1
75,76,60,0.130764234297834,1
75,77,60,0.164562639220224,1
75,78,60,0.227209408415975,1
75,79,60,0.234900314480015,1
75,80,60,0.161657227429848,1
76,75,60,0.123770082972262,1
76,76,60,0.131910688674395,1
76,77,60,0.161623451377418,1
76,78,60,0.210123719277571,1
76,79,60,0.205225885476665,1
76,80,60,0.135076734291945,1
77,76,60,0.12359978948616,1
77,77,60,0.154469358431186,1
77,78,60,0.177413567458691,1
77,79,60,0.154118066287552,1
78,77,60,0.129975478680151,1
78,78,60,0.131002409641051,1
80,78,60,0.129357958697871,1
80,79,60,0.124843249910095,1
81,77,60,0.126348038996313,1
81,78,60,0.142081967648666,1
81,79,60,0.115085150511648,1
82,75,60,0.12714641631373,1
82,76,60,0.12484993917013,1
82,77,60,0.126197648414188,1
82,78,60,0.121469283718746,1
83,74,60,0.114487592317677,1
83,75,60,0.135863299412504,1
83,76,60,0.121317491689537,1
84,74,60,0.119730982928349,1
84,75,60,0.14195018451523,1
84,76,60,0.134529946168415,1
85,74,60,0.118054334032816,1
85,75,60,0.178944783832793,1
85,76,60,0.208484332386882,1
85,77,60,0.152732588633402,1
86,75,60,0.19364074660056,1
86,76,60,0.270896800828413,1
86,77,60,0.206015571466782,1
87,75,60,0.128440022634195,1
87,76,60,0.181798436295963,1
87,77,60,0.15173188475366,1
97,81,60,0.125633524743526,1
97,82,60,0.148235922004735,1
97,83,60,0.154636177741742,1
97,84,60,0.124045555650922,1
98,81,60,0.130667075151198,1
98,82,60,0.151795420947126,1
98,83,60,0.167463929107411,1
98,84,60,0.142450253810311,1
99,81,60,0.114315143665049,1
99,82,60,0.12435880851654,1
99,83,60,0.14126586614753,1
99,84,60,0.142798684175444,1
99,85,60,0.125388989892528,1
100,83,60,0.119075871188971,1
100,84,60,0.144450248345845,1
100,85,60,0.160080093054202,1
100,86,60,0.142199995402311,1
101,84,60,0.139188050079758,1
101,85,60,0.148952297002392,1
101,86,60,0.135804721279733,1
101,91,60,0.123118516069628,1
102,85,60,0.124939525791761,1
102,86,60,0.120011531436366,1
102,87,60,0.12400923579538,1
102,88,60,0.130064229144277,1
102,89,60,0.119894469385754,1
103,87,60,0.134990763168256,1
103,88,60,0.162187516163749,1
64,83,61,0.121035635949365,1
65,83,61,0.12098446546547,1
66,82,61,0.119513723299607,1
66,83,61,0.115610822713976,1
67,80,61,0.115187950777221,1
67,81,61,0.127885744423724,1
67,82,61,0.126876678968938,1
68,80,61,0.127494210728085,1
68,81,61,0.133030503779479,1
68,82,61,0.12138900082146,1
69,79,61,0.123395036889385,1
69,80,61,0.133649378101379,1
69,81,61,0.130899008755299,1
69,82,61,0.114869398321787,1
70,78,61,0.123987130617412,1
70,79,61,0.147329197517738,1
70,80,61,0.1572697323514,1
70,81,61,0.137183945417899,1
71,78,61,0.161283735893316,1
71,79,61,0.180506855596494,1
71,80,61,0.181601256224192,1
71,81,61,0.139865573195626,1
71,93,61,0.114562316534089,1
72,77,61,0.184919517838137,1
72,78,61,0.188008931386941,1
72,79,61,0.183786430204779,1
72,80,61,0.162721055312738,1
72,81,61,0.115908023710883,1
72,93,61,0.113813767137814,1
73,77,61,0.160532760462592,1
73,78,61,0.17655227812172,1
73,79,61,0.169622805345642,1
73,80,61,0.135357895197008,1
74,77,61,0.13158099530348,1
74,78,61,0.163849114224203,1
74,79,61,0.168919267132208,1
74,80,61,0.133713715121751,1
75,76,61,0.122781073520715,1
75,77,61,0.133660401248197,1
75,78,61,0.174873050092477,1
75,79,61,0.18267966386751,1
75,80,61,0.138627011948055,1
76,76,61,0.121225219942399,1
76,77,61,0.145805200362652,1
76,78,61,0.199320517213586,1
76,79,61,0.189943658529669,1
76,80,61,0.128604086158046,1
77,77,61,0.135323000342283,1
77,78,61,0.172870205555308,1
77,79,61,0.153254174263138,1
77,96,61,0.11684950173021,1
77,97,61,0.115180955318664,1
78,78,61,0.117323744357586,1
80,78,61,0.115125827807706,1
80,79,61,0.12377314495749,1
81,78,61,0.120148743705147,1
81,79,61,0.117769922712666,1
85,75,61,0.132239899193793,1
85,76,61,0.163995170919544,1
85,77,61,0.146395857312996,1
86,75,61,0.152532052154747,1
86,76,61,0.233670291460481,1
86,77,61,0.215114260569667,1
86,78,61,0.119573526226469,1
87,76,61,0.178420807499207,1
87,77,61,0.171769480750429,1
97,82,61,0.119722468254044,1
97,83,61,0.133652463640339,1
97,84,61,0.119008189538581,1
98,82,61,0.120154844121869,1
98,83,61,0.134332283245128,1
98,84,61,0.123493232400251,1
100,84,61,0.117385525797979,1
100,85,61,0.124481217264434,1
100,86,61,0.115988671691023,1
101,85,61,0.129656019406014,1
101,86,61,0.11725941911408,1
102,88,61,0.114906519004235,1
71,78,62,0.129881299080679,1
71,79,62,0.133136472022076,1
71,80,62,0.125333143992729,1
71,93,62,0.126908134978715,1
71,94,62,0.141008824264565,1
71,95,62,0.146505700144592,1
71,96,62,0.144211283952588,1
71,97,62,0.13163863128695,1
72,77,62,0.162973044920077,1
72,78,62,0.164938427245676,1
72,79,62,0.150521682200039,1
72,80,62,0.129573663780267,1
72,93,62,0.140009203856519,1
72,94,62,0.156507286252939,1
72,95,62,0.149226709763088,1
72,96,62,0.127284570731812,1
73,77,62,0.146753685617403,1
73,78,62,0.15181388707342,1
73,79,62,0.140366101788491,1
73,80,62,0.119965707649753,1
74,78,62,0.1208806170588,1
74,79,62,0.125649211529382,1
75,78,62,0.133139404461774,1
75,79,62,0.138157574282113,1
75,80,62,0.115173889198908,1
75,99,62,0.119018541404023,1
75,100,62,0.123379385434127,1
76,77,62,0.130516719899672,1
76,78,62,0.173753258541125,1
76,79,62,0.163613141154975,1
76,80,62,0.118107223939185,1
76,99,62,0.122197011615476,1
76,100,62,0.125385021088599,1
77,77,62,0.119067780481851,1
77,78,62,0.157636899710751,1
77,79,62,0.147903154871727,1
77,96,62,0.120101412479653,1
77,97,62,0.124484338133992,1
78,95,62,0.129453775281752,1
78,96,62,0.150009883146164,1
78,97,62,0.138912377194372,1
79,95,62,0.120728059533284,1
79,96,62,0.123078050757163,1
80,79,62,0.116110185397082,1
81,79,62,0.121874961430763,1
85,76,62,0.121034022518687,1
85,77,62,0.127554308076603,1
86,76,62,0.172229249609173,1
86,77,62,0.185998773415825,1
86,78,62,0.119106349718849,1
87,76,62,0.153917423817101,1
87,77,62,0.167467462167288,1
70,96,63,0.130948377378656,1
70,97,63,0.144638583991056,1
70,98,63,0.129433519071787,1
71,93,63,0.123350061037142,1
71,94,63,0.165322765276032,1
71,95,63,0.188433145886449,1
71,96,63,0.189754333627692,1
71,97,63,0.175751828075842,1
71,98,63,0.135984471589441,1
72,78,63,0.140413056154265,1
72,79,63,0.121844011826235,1
72,93,63,0.148543498420816,1
72,94,63,0.202296931730637,1
72,95,63,0.199850264211639,1
72,96,63,0.157334116479237,1
72,97,63,0.125163462903672,1
73,77,63,0.138006747955936,1
73,78,63,0.136740240204733,1
73,79,63,0.118891021496173,1
73,93,63,0.115991462808327,1
73,94,63,0.129408175255598,1
73,95,63,0.116116874657117,1
75,99,63,0.12557920983634,1
75,100,63,0.14431159929938,1
75,101,63,0.132138288391713,1
76,78,63,0.138919549305923,1
76,79,63,0.134590161285597,1
76,98,63,0.116681952253946,1
76,99,63,0.144736214212341,1
76,100,63,0.148158712869543,1
77,78,63,0.134327254523235,1
77,79,63,0.136262417410015,1
77,93,63,0.122322470571731,1
77,97,63,0.12217496532184,1
77,98,63,0.123887251014671,1
77,99,63,0.121409068601565,1
78,79,63,0.114168568787592,1
78,94,63,0.119859974944482,1
78,95,63,0.150893984273079,1
78,96,63,0.169667887189681,1
78,97,63,0.148285844140806,1
78,98,63,0.119413184192355,1
79,94,63,0.115003313068016,1
79,95,63,0.147410069258337,1
79,96,63,0.14666033039857,1
79,97,63,0.117407466099819,1
81,79,63,0.125248244563869,1
81,93,63,0.11836165135784,1
86,77,63,0.131084753489933,1
87,77,63,0.133245832002155,1
70,95,64,0.114045535865787,1
70,96,64,0.140856902689827,1
70,97,64,0.161777292581356,1
70,98,64,0.14074344436029,1
70,99,64,0.114482846240575,1
71,94,64,0.175845348170803,1
71,95,64,0.214729486795259,1
71,96,64,0.224477717179782,1
71,97,64,0.211118605385382,1
71,98,64,0.153712812542721,1
72,93,64,0.13885112571296,1
72,94,64,0.219023685539205,1
72,95,64,0.227982041503749,1
72,96,64,0.180569002119742,1
72,97,64,0.139049872107943,1
73,93,64,0.116297484678061,1
73,94,64,0.142622749570403,1
73,95,64,0.131466371064183,1
74,101,64,0.122295760639056,1
74,102,64,0.124691434327153,1
75,99,64,0.116801734760664,1
75,100,64,0.147166994738756,1
75,101,64,0.152053452086856,1
75,102,64,0.116395998164316,1
76,98,64,0.121485264926259,1
76,99,64,0.157383320226466,1
76,100,64,0.163393255285057,1
76,101,64,0.127654764745791,1
77,92,64,0.12044258829517,1
77,93,64,0.124883185263579,1
77,97,64,0.120108407938211,1
77,98,64,0.145093159251779,1
77,99,64,0.157443735550374,1
77,100,64,0.130725358862313,1
78,92,64,0.1144378468346,1
78,93,64,0.123147110300905,1
78,94,64,0.125635208835401,1
78,95,64,0.156428345918407,1
78,96,64,0.167929527514952,1
78,97,64,0.143803180206122,1
78,98,64,0.134166841827924,1
78,99,64,0.121183270744785,1
79,94,64,0.126039214232409,1
79,95,64,0.161027730374583,1
79,96,64,0.157146616991531,1
79,97,64,0.12217445891659,1
80,92,64,0.123723623234872,1
80,93,64,0.12652618765221,1
80,94,64,0.122679250735041,1
80,95,64,0.11741158800301,1
81,92,64,0.13760856033086,1
81,93,64,0.147219095595085,1
81,94,64,0.133403453580163,1
82,79,64,0.123874920635698,1
82,80,64,0.115541421641113,1
82,92,64,0.113970823426241,1
82,93,64,0.124738259147398,1
82,94,64,0.123315637257068,1
83,79,64,0.115281105789328,1
86,92,64,0.121614928223769,1
87,91,64,0.126712179701035,1
87,92,64,0.133615802255675,1
70,96,65,0.127559065930572,1
70,97,65,0.146409518477856,1
70,98,65,0.125623738167665,1
71,94,65,0.159814242075276,1
71,95,65,0.199413507349565,1
71,96,65,0.216811165675164,1
71,97,65,0.205722468819333,1
71,98,65,0.14493019097649,1
72,93,65,0.118283912263665,1
72,94,65,0.187808489123216,1
72,95,65,0.208767801557731,1
72,96,65,0.182444738939379,1
72,97,65,0.143958399303413,1
73,89,65,0.123010298445576,1
73,94,65,0.132832946847988,1
73,95,65,0.130385690485677,1
74,88,65,0.14189367911092,1
74,89,65,0.152694584685985,1
74,90,65,0.130527754823357,1
74,101,65,0.117705244163173,1
74,102,65,0.134318881171325,1
75,89,65,0.1251020229924,1
75,90,65,0.133693341143123,1
75,91,65,0.125656560293928,1
75,100,65,0.131124759504614,1
75,101,65,0.154566022949438,1
75,102,65,0.135352360069866,1
76,90,65,0.123941024186009,1
76,91,65,0.125791876487242,1
76,98,65,0.120773812658699,1
76,99,65,0.153510038459477,1
76,100,65,0.164871487537861,1
76,101,65,0.139200863310247,1
77,91,65,0.123883082004016,1
77,92,65,0.117620097420122,1
77,97,65,0.114140645837693,1
77,98,65,0.161134346344823,1
77,99,65,0.185910882662936,1
77,100,65,0.152046833488019,1
78,92,65,0.12360104961085,1
78,93,65,0.120778923818655,1
78,94,65,0.117703701393693,1
78,95,65,0.132585573772222,1
78,96,65,0.13620325043393,1
78,97,65,0.125497195739714,1
78,98,65,0.143060024614593,1
78,99,65,0.145067744774392,1
79,92,65,0.12827597088721,1
79,93,65,0.132255609533383,1
79,94,65,0.129691809302575,1
79,95,65,0.142275473338164,1
79,96,65,0.138183236073691,1
79,97,65,0.114775230499182,1
80,91,65,0.11647298353905,1
80,92,65,0.138085299653883,1
80,93,65,0.143623547665076,1
80,94,65,0.127514537599247,1
81,91,65,0.123071220174733,1
81,92,65,0.155708532075803,1
81,93,65,0.165973590236092,1
81,94,65,0.141179895023841,1
82,79,65,0.114642434555248,1
82,91,65,0.125575818098858,1
82,92,65,0.16862556386458,1
82,93,65,0.183212790826179,1
82,94,65,0.166819593200659,1
82,95,65,0.131728076586186,1
83,79,65,0.132673806054233,1
83,92,65,0.12914525671637,1
83,93,65,0.141405422012697,1
83,94,65,0.153755385914246,1
83,95,65,0.14246029947723,1
86,90,65,0.119849846839499,1
86,91,65,0.12044230565038,1
86,92,65,0.133675605182537,1
86,93,65,0.123242243826543,1
87,90,65,0.125262306142182,1
87,91,65,0.135541861624836,1
87,92,65,0.139871178983965,1
88,91,65,0.116308543155478,1
88,92,65,0.118392353648176,1
71,94,66,0.120898199920125,1
71,95,66,0.154514852465543,1
71,96,66,0.174033041552835,1
71,97,66,0.163417079885499,1
71,98,66,0.114035101562281,1
72,94,66,0.130739338002562,1
72,95,66,0.159996194658974,1
72,96,66,0.160744131658204,1
72,97,66,0.134097452531927,1
73,88,66,0.117269947632515,1
73,89,66,0.133602176421414,1
73,95,66,0.116461359772053,1
74,88,66,0.157798266332229,1
74,89,66,0.177846508616097,1
74,90,66,0.142962559269435,1
74,102,66,0.121821011606431,1
75,88,66,0.11745200620801,1
75,89,66,0.1427181421871,1
75,90,66,0.149731301374813,1
75,91,66,0.133546683827602,1
75,101,66,0.140261935406432,1
75,102,66,0.145277231671404,1
76,90,66,0.142834167873481,1
76,91,66,0.146014263292478,1
76,92,66,0.115753511225568,1
76,99,66,0.131355397653426,1
76,100,66,0.145866016100013,1
76,101,66,0.14218309559923,1
76,102,66,0.114804837540956,1
77,90,66,0.117345708213158,1
77,91,66,0.13182517684849,1
77,98,66,0.155673307468823,1
77,99,66,0.182389882296346,1
77,100,66,0.153518458918852,1
78,91,66,0.117378259471498,1
78,92,66,0.120895491240885,1
78,98,66,0.136494704320103,1
78,99,66,0.149606525476801,1
79,91,66,0.126090219840176,1
79,92,66,0.149707500328103,1
79,93,66,0.139705937773488,1
80,91,66,0.120792337669324,1
80,92,66,0.148016271672143,1
80,93,66,0.144098814879816,1
81,91,66,0.117748429931744,1
81,92,66,0.151851949905168,1
81,93,66,0.163715187701108,1
81,94,66,0.132085987328657,1
82,91,66,0.140284688312044,1
82,92,66,0.193704483000753,1
82,93,66,0.224384185307954,1
82,94,66,0.188135344269363,1
82,95,66,0.12899972998001,1
83,79,66,0.125859852559287,1
83,91,66,0.130039874584854,1
83,92,66,0.160069894288022,1
83,93,66,0.189237446967594,1
83,94,66,0.186937825400703,1
83,95,66,0.15011579250443,1
84,93,66,0.115348445910596,1
84,94,66,0.125196061269476,1
84,95,66,0.121551156492977,1
85,93,66,0.118360414786883,1
86,89,66,0.13979656075935,1
86,90,66,0.144672842895002,1
86,91,66,0.119633717789917,1
86,92,66,0.124879381335777,1
86,93,66,0.140924713885745,1
87,89,66,0.153994609398561,1
87,90,66,0.156995873103418,1
87,91,66,0.130576098859349,1
87,92,66,0.125446637652865,1
87,93,66,0.121078338866419,1
88,92,66,0.116799473602343,1
71,96,67,0.11994364957925,1
72,96,67,0.121608556939123,1
73,89,67,0.127569512010943,1
74,88,67,0.146647952912132,1
74,89,67,0.172529112177854,1
74,90,67,0.144496225231719,1
75,88,67,0.118612215964362,1
75,89,67,0.147475112890685,1
75,90,67,0.155937651008868,1
75,91,67,0.134661788186183,1
75,102,67,0.133533905927711,1
76,89,67,0.118435421648085,1
76,90,67,0.155143195387915,1
76,91,67,0.164937708856835,1
76,92,67,0.126477231219172,1
76,100,67,0.120453399458396,1
76,101,67,0.132837398503434,1
77,90,67,0.1189816562589,1
77,91,67,0.137661120484973,1
77,92,67,0.116494405658775,1
77,98,67,0.142744581251851,1
77,99,67,0.157813517374034,1
77,100,67,0.136982631666071,1
78,92,67,0.116800133106853,1
78,98,67,0.129154748870575,1
78,99,67,0.141271778134392,1
79,90,67,0.117576770329156,1
79,91,67,0.141768950320373,1
79,92,67,0.164478870370526,1
79,93,67,0.14195411798856,1
80,91,67,0.135733377023937,1
80,92,67,0.165314250601727,1
80,93,67,0.146206709064013,1
81,91,67,0.116195508793127,1
81,92,67,0.147791604394524,1
81,93,67,0.157304650759858,1
81,94,67,0.122828381192476,1
82,91,67,0.140037809864661,1
82,92,67,0.189924697774992,1
82,93,67,0.230648583115799,1
82,94,67,0.180429976213557,1
83,90,67,0.11413977434959,1
83,91,67,0.140888217377209,1
83,92,67,0.173339289915262,1
83,93,67,0.212405557776411,1
83,94,67,0.185753543729718,1
83,95,67,0.131646168481356,1
84,92,67,0.114419003848586,1
84,93,67,0.132701434582476,1
84,94,67,0.129718130598663,1
84,95,67,0.115886719359821,1
85,93,67,0.120253958228303,1
86,89,67,0.146889920406285,1
86,90,67,0.151556809859856,1
86,91,67,0.119993771922048,1
86,92,67,0.116644843348365,1
86,93,67,0.141143669383229,1
87,89,67,0.170000972298078,1
87,90,67,0.16812246791487,1
87,91,67,0.126416933663927,1
87,92,67,0.117157431452279,1
87,93,67,0.134782183089946,1
88,93,67,0.118498887180353,1
92,92,67,0.114336824875832,1
74,89,68,0.146200867738349,1
75,89,68,0.140305439150392,1
75,90,68,0.153636616218026,1
76,90,68,0.15663817434454,1
76,91,68,0.172658610599236,1
77,91,68,0.139679793130394,1
77,99,68,0.122536362016723,1
79,91,68,0.14882761531931,1
79,92,68,0.16586625587701,1
80,91,68,0.1473004501872,1
80,92,68,0.172695695951085,1
80,93,68,0.141477555318532,1
81,91,68,0.118695831714799,1
81,92,68,0.14499736622163,1
81,93,68,0.145609810374552,1
82,91,68,0.129924437741785,1
82,92,68,0.167422239000854,1
82,93,68,0.199037024489004,1
82,94,68,0.153888158304448,1
83,91,68,0.139278307982765,1
83,92,68,0.169529473680541,1
83,93,68,0.19947679622884,1
83,94,68,0.160737312852641,1
84,93,68,0.140589026089904,1
84,94,68,0.124195015860612,1
86,90,68,0.137857911920158,1
86,91,68,0.117567643257805,1
86,93,68,0.132172994816577,1
87,89,68,0.150805222032086,1
87,90,68,0.148504564100965,1
87,91,68,0.116421518633499,1
87,92,68,0.11506720256747,1
87,93,68,0.147961862550027,1
