x,y,z,signal,mito.p
401,280,22,0.246257735870139,2
399,287,23,0.18840578822613,1
400,280,23,0.182787645954237,2
400,287,23,0.196649818367747,1
401,279,23,0.266933649795002,2
401,280,23,0.354162189494677,2
401,281,23,0.287486519021194,2
401,285,23,0.185307400705236,1
402,278,23,0.141589070465136,1
402,279,23,0.231443026959885,1
402,280,23,0.308105762665619,2
402,281,23,0.285092776739163,1
402,282,23,0.242896100057763,1
403,279,23,0.177213749368878,1
403,280,23,0.188936559811548,1
403,281,23,0.20547404760247,1
403,282,23,0.277144640362298,1
404,281,23,0.181492744178483,1
409,288,23,0.21752121649564,1
411,288,23,0.279727000934329,1
413,279,23,0.200226323105015,1
413,284,23,0.1999620737799,1
413,285,23,0.181328515778504,1
414,283,23,0.228235620988034,1
414,284,23,0.318541220303807,3
414,285,23,0.285555984442854,1
414,286,23,0.164553064627956,1
415,282,23,0.18639661951178,1
415,283,23,0.221726382130669,1
415,284,23,0.25931990575869,3
415,285,23,0.225381473896482,1
415,286,23,0.155504804066392,1
397,286,24,0.142943598514758,1
398,286,24,0.116763542383387,1
398,287,24,0.139210555671178,1
399,286,24,0.140641845335075,1
399,287,24,0.170579581514239,1
399,288,24,0.142459004021941,1
400,279,24,0.135478937828416,1
400,280,24,0.17505841796739,2
400,281,24,0.149615982300406,1
400,285,24,0.123050198468461,1
400,286,24,0.145602367395077,1
400,287,24,0.160505355694807,1
400,288,24,0.164645831003477,1
401,276,24,0.136147946269979,1
401,278,24,0.127757329474039,1
401,279,24,0.255870084771768,2
401,280,24,0.366029878946063,2
401,281,24,0.297163829117105,2
401,282,24,0.161222531519369,1
401,284,24,0.115601212791109,1
401,285,24,0.155490047652969,1
401,286,24,0.141878133647458,1
401,287,24,0.131600062049953,1
402,278,24,0.140677352586845,1
402,279,24,0.23483057187803,2
402,280,24,0.330811466597651,2
402,281,24,0.28481142740424,2
402,282,24,0.194271056259598,1
402,283,24,0.136350967667415,1
402,284,24,0.140614487674756,1
402,285,24,0.189464940693115,1
402,286,24,0.18421343582159,1
402,287,24,0.175328402626373,1
402,288,24,0.207028664609829,1
403,279,24,0.183255140437246,1
403,280,24,0.19515991524048,2
403,281,24,0.185187229561932,1
403,282,24,0.21728311181362,1
403,283,24,0.209584032604396,1
403,284,24,0.173860757776335,1
403,288,24,0.222115795990382,1
403,289,24,0.205076672581166,1
404,281,24,0.159574311978986,1
404,282,24,0.242732943352614,1
404,288,24,0.187335930587716,1
404,289,24,0.180399321030685,1
405,282,24,0.198429573727375,1
405,286,24,0.201938467475452,1
405,287,24,0.147525694531266,1
405,288,24,0.132499049135818,1
405,289,24,0.150127616478154,1
405,290,24,0.190324004202363,1
406,283,24,0.16006659676547,1
406,284,24,0.161843243032406,1
406,285,24,0.166380221874276,1
406,286,24,0.135197623824092,1
406,290,24,0.12104241942433,1
406,291,24,0.152230670370318,1
406,292,24,0.187317087601701,1
408,279,24,0.134661234673468,1
408,286,24,0.118287068463823,1
409,280,24,0.122341607979402,1
409,287,24,0.209825364147771,1
409,288,24,0.167391819355308,1
409,289,24,0.116345322308805,1
410,277,24,0.169379318635741,1
410,278,24,0.117638952183002,1
410,288,24,0.257211210747587,1
410,289,24,0.170628620385341,1
410,290,24,0.121404416739393,1
411,277,24,0.191370814513508,1
411,278,24,0.155512199938402,1
411,284,24,0.127919002294039,1
411,285,24,0.155033482101848,1
411,286,24,0.160398362864846,1
411,287,24,0.204474356533226,1
411,288,24,0.233934446570666,1
411,289,24,0.195988806418373,1
411,290,24,0.146885975156088,1
412,278,24,0.159803772441172,1
412,279,24,0.124179128868029,1
412,288,24,0.127856808663327,1
412,289,24,0.12920147947589,1
413,278,24,0.147947553657523,1
413,279,24,0.175981559405952,1
413,280,24,0.125298979303712,1
413,283,24,0.117787835326246,1
413,284,24,0.195439015193948,3
413,285,24,0.205418107487741,1
413,286,24,0.129763165335237,1
414,279,24,0.158521672119042,1
414,281,24,0.12173085969522,1
414,282,24,0.137464917893102,1
414,283,24,0.221166863214713,3
414,284,24,0.365698077516087,3
414,285,24,0.345978162486649,3
414,286,24,0.183764336803677,1
414,289,24,0.121961179868644,1
415,281,24,0.136167071900783,1
415,282,24,0.175989862096665,1
415,283,24,0.270533460950597,3
415,284,24,0.348129913720793,3
415,285,24,0.280928759474842,3
415,286,24,0.163512814031316,1
415,287,24,0.14821739699411,1
415,288,24,0.207349230909394,1
415,289,24,0.247196799631883,1
416,284,24,0.257152397077491,3
416,285,24,0.175181686426521,1
416,286,24,0.161799998379503,1
416,287,24,0.226591264259783,1
417,285,24,0.183679508036015,1
417,286,24,0.227796791397499,1
396,286,25,0.139125514919923,1
397,286,25,0.124864566038024,1
397,287,25,0.144171478144633,1
398,287,25,0.128424642046861,1
398,290,25,0.16061961485125,1
399,275,25,0.132066991243382,1
399,286,25,0.117968080264337,1
399,287,25,0.130598109822387,1
399,288,25,0.114531767343014,1
399,289,25,0.147290852041199,1
400,275,25,0.130684387144599,1
400,276,25,0.128384647809046,1
400,279,25,0.115670201673653,1
400,280,25,0.152248759636892,1
400,281,25,0.137700561210074,1
400,286,25,0.121629920174516,1
400,287,25,0.119397874266219,1
400,288,25,0.126750101210389,1
401,275,25,0.157201167436041,1
401,279,25,0.206451221303428,1
401,280,25,0.308815271750247,2
401,281,25,0.260401304726038,1
401,282,25,0.134862972392482,1
401,285,25,0.119397379637836,1
401,288,25,0.137875094368029,1
402,278,25,0.130025589246082,1
402,279,25,0.207481084704027,1
402,280,25,0.298728197369726,2
402,281,25,0.247967407098662,1
402,282,25,0.147292418364412,1
402,285,25,0.133063738096061,1
402,286,25,0.130203243273596,1
402,287,25,0.124097939152041,1
402,288,25,0.155261317356491,1
402,289,25,0.207604741799744,1
403,279,25,0.168936013836028,1
403,280,25,0.181864433854477,1
403,281,25,0.157960245350752,1
403,282,25,0.154078813992311,1
403,283,25,0.148872402741692,1
403,284,25,0.12529470430126,1
403,285,25,0.138952500977715,1
403,286,25,0.149319452584876,1
403,287,25,0.154443072465696,1
403,288,25,0.159732840375695,1
403,289,25,0.156258935697274,1
403,290,25,0.164975948341577,1
404,279,25,0.20650148496862,1
404,280,25,0.165591101173739,1
404,281,25,0.133612021881606,1
404,282,25,0.170965073677489,1
404,283,25,0.196918825546831,1
404,284,25,0.158253030022812,1
404,285,25,0.15071993396664,1
404,286,25,0.151800779421273,1
404,287,25,0.143478232912309,1
404,288,25,0.131749746020102,1
404,289,25,0.125446531661069,1
404,290,25,0.148600910643828,1
404,291,25,0.207875515508767,1
405,275,25,0.121273116457473,1
405,281,25,0.165791578768063,1
405,282,25,0.151759795926693,1
405,283,25,0.168913991096124,1
405,284,25,0.159901791299044,1
405,285,25,0.159423697636402,1
405,286,25,0.143200216430537,1
405,290,25,0.122633627155155,1
405,291,25,0.1494949043384,1
405,292,25,0.178797160814239,1
405,293,25,0.211769842535761,1
406,277,25,0.13213307123996,1
406,278,25,0.173193480534112,1
406,282,25,0.15301127639655,1
406,283,25,0.12206522848204,1
406,284,25,0.115915678673951,1
406,285,25,0.118007403220775,1
406,292,25,0.143933762099199,1
406,293,25,0.202247727983408,1
407,283,25,0.152943665407359,1
407,284,25,0.116203917475635,1
407,293,25,0.142831341425579,1
408,279,25,0.121915191205903,1
408,285,25,0.141816693736186,1
409,281,25,0.144636440601397,1
409,282,25,0.175548288496291,1
409,286,25,0.162040352442979,1
409,287,25,0.139612052595673,1
409,288,25,0.122954605645038,1
410,276,25,0.117966773032182,1
410,277,25,0.167530491955505,1
410,278,25,0.119155306151886,1
410,283,25,0.164174650361328,1
410,284,25,0.232928113348852,1
410,285,25,0.232969332380758,1
410,286,25,0.197169048624231,1
410,287,25,0.207735135262962,1
410,288,25,0.197408790290662,1
410,289,25,0.128213529942306,1
411,277,25,0.172210524391821,1
411,278,25,0.139372146053115,1
411,285,25,0.121315030324488,1
411,286,25,0.129019220693669,1
411,287,25,0.161286197258364,1
411,288,25,0.177010103797531,1
411,289,25,0.130093671309924,1
412,278,25,0.122727194357581,1
413,279,25,0.132497859672326,1
413,284,25,0.160447672603872,1
413,285,25,0.192620116263108,1
413,286,25,0.133050465567788,1
414,283,25,0.171579260806617,1
414,284,25,0.318889909759998,3
414,285,25,0.31841410080941,1
414,286,25,0.173544136726968,1
414,289,25,0.132201341733662,1
415,282,25,0.139145158732843,1
415,283,25,0.252038646210595,1
415,284,25,0.355753832969554,3
415,285,25,0.276568304081325,1
415,286,25,0.146707449640471,1
415,287,25,0.132224919019912,1
415,290,25,0.25314863940922,1
416,280,25,0.145677268264483,1
416,285,25,0.173829219328494,1
416,286,25,0.153844713444819,1
398,275,26,0.124154903854135,1
398,290,26,0.124911367304536,1
398,291,26,0.192049574200334,1
399,274,26,0.143166852568426,1
399,275,26,0.155245218380315,1
399,276,26,0.1193705166059,1
399,290,26,0.160840607746597,1
400,274,26,0.13136174538434,1
400,275,26,0.16845819104131,1
400,276,26,0.1429279470595,1
400,280,26,0.115776240577447,1
400,289,26,0.13960154763097,1
401,275,26,0.183623132177234,1
401,279,26,0.144536160585203,1
401,280,26,0.216412236107514,1
401,281,26,0.188226779858996,1
401,289,26,0.152479515554367,1
402,274,26,0.12579770603604,1
402,279,26,0.156050626486888,1
402,280,26,0.220958883756583,1
402,281,26,0.181971803544158,1
402,289,26,0.12762687712649,1
402,290,26,0.148663033613343,1
402,291,26,0.164726502537349,1
403,279,26,0.129109714134001,1
403,280,26,0.139395134496052,1
403,281,26,0.118657297808401,1
403,291,26,0.156029451681355,1
404,279,26,0.133265487591941,1
404,291,26,0.129536861073208,1
404,292,26,0.182280875622254,1
404,293,26,0.19947931647822,1
405,278,26,0.179189989965168,1
405,279,26,0.160021126284844,1
405,280,26,0.145675807933067,1
405,281,26,0.114900336149449,1
405,292,26,0.121993954887442,1
405,293,26,0.160104176745701,1
406,278,26,0.130364798324934,1
406,279,26,0.169991185722217,1
406,280,26,0.196985894800174,1
406,281,26,0.156948341671198,1
406,293,26,0.162267610631175,1
406,294,26,0.201811442195984,1
407,279,26,0.150246280182577,1
407,282,26,0.138931314395316,1
407,293,26,0.120775390758778,1
407,294,26,0.14816813436255,1
408,280,26,0.155475444338809,1
408,281,26,0.178089076730429,1
408,282,26,0.155371454609743,1
408,283,26,0.139406899585445,1
408,284,26,0.132292200256849,1
409,282,26,0.127678836660424,1
409,283,26,0.164679183088722,1
409,284,26,0.195700885592078,1
409,285,26,0.155697685581978,1
410,277,26,0.131990936241082,1
410,283,26,0.132512922284271,1
410,284,26,0.160345366966682,1
410,285,26,0.144565932503105,1
410,286,26,0.118725945161823,1
410,287,26,0.12399267752142,1
410,288,26,0.126205374038454,1
411,277,26,0.129369923993989,1
411,288,26,0.114538374164985,1
413,285,26,0.145602614709268,1
414,283,26,0.120769714309241,1
414,284,26,0.227492736264429,1
414,285,26,0.234377892692775,1
414,286,26,0.139761006400114,1
414,289,26,0.118522276036743,1
415,283,26,0.197733443162818,1
415,284,26,0.292010743516906,1
415,285,26,0.226773075521086,1
415,286,26,0.121764824177511,1
415,288,26,0.171987788520269,1
415,291,26,0.156042052928252,1
416,279,26,0.121574498241902,1
416,280,26,0.120099009998936,1
416,281,26,0.138073098820439,1
416,282,26,0.167925794248348,1
416,284,26,0.253095478634927,1
416,285,26,0.155628767360632,1
416,286,26,0.132399534615931,1
397,291,27,0.134313346044184,1
398,274,27,0.122424411126067,1
398,275,27,0.118766351589957,1
398,291,27,0.162205452331061,1
398,292,27,0.225405616472312,1
399,273,27,0.132943566952757,1
399,274,27,0.181050334420605,1
399,275,27,0.180951762050019,1
399,276,27,0.116403441143792,1
399,291,27,0.167687607128264,1
400,273,27,0.113792651216612,1
400,274,27,0.179859669688108,1
400,275,27,0.216978514944702,1
400,276,27,0.156811612253933,1
400,290,27,0.137518255320388,1
400,291,27,0.190431915627892,1
401,274,27,0.134210486894279,1
401,275,27,0.204681770701776,1
401,276,27,0.183938728639238,1
401,280,27,0.129328033680707,1
401,281,27,0.116375447532695,1
401,290,27,0.134918241225834,1
401,291,27,0.166985234824589,1
401,292,27,0.17940032479655,1
402,274,27,0.134324369191002,1
402,275,27,0.266791785664049,1
402,277,27,0.159953267981461,1
402,280,27,0.136649876309929,1
402,281,27,0.11652111559145,1
402,291,27,0.124091885842784,1
402,292,27,0.164943373529505,1
403,274,27,0.147949190641932,1
403,278,27,0.115431284387861,1
403,292,27,0.169520417270388,1
403,293,27,0.230920251866657,1
404,275,27,0.203181468601603,1
404,278,27,0.123917305577364,1
404,292,27,0.132962044855917,1
404,293,27,0.1654921283897,1
404,294,27,0.175948478188631,1
405,276,27,0.119911216089574,1
405,277,27,0.124380407289258,1
405,293,27,0.126409325808324,1
405,294,27,0.157293969142161,1
406,280,27,0.113882072962115,1
406,293,27,0.121674118753585,1
406,294,27,0.161464428352325,1
407,280,27,0.121512175065661,1
407,294,27,0.126339559652607,1
414,284,27,0.140305215389933,1
414,285,27,0.144918107911708,1
415,283,27,0.134905216011752,1
415,284,27,0.191640634296364,1
415,285,27,0.157258073253804,1
415,288,27,0.131430981581075,1
415,291,27,0.160490033991805,1
416,278,27,0.114216877492986,1
416,282,27,0.129997183444666,1
416,283,27,0.184490710360788,1
416,284,27,0.189890050234459,1
416,285,27,0.133734359968302,1
416,286,27,0.116150580048349,1
416,287,27,0.161262278442993,1
417,282,27,0.181213891539207,1
417,284,27,0.218317685960722,1
417,285,27,0.160066478996807,1
417,286,27,0.182413965987845,1
418,289,27,0.190740964152255,1
397,292,28,0.124046038502439,1
398,274,28,0.132274193428339,1
398,291,28,0.127032510463275,1
398,292,28,0.191116540194115,1
398,293,28,0.237220215810603,1
399,273,28,0.163301089529716,1
399,274,28,0.213917377651785,1
399,275,28,0.190319564323783,1
399,291,28,0.121068952704011,1
399,292,28,0.203378071606927,1
400,273,28,0.140148100217175,1
400,274,28,0.219371220862502,1
400,275,28,0.238708458399727,1
400,276,28,0.152650386106916,1
400,291,28,0.120047038688136,1
400,292,28,0.166927881485909,1
401,274,28,0.146927099973064,1
401,275,28,0.196336977692448,1
401,276,28,0.15694798836521,1
401,292,28,0.12873650524226,1
401,293,28,0.163182614255152,1
402,274,28,0.132949102079898,1
402,275,28,0.221096955736601,1
402,276,28,0.219196452167221,1
402,277,28,0.118470552040135,1
402,293,28,0.155022694492355,1
403,274,28,0.133585088188472,1
403,275,28,0.243866019209105,1
403,277,28,0.149350284420742,1
403,293,28,0.146441916636934,1
403,294,28,0.176556364694312,1
404,275,28,0.146304621930089,1
404,276,28,0.165289896042304,1
404,293,28,0.117669548481543,1
404,294,28,0.1367681396009,1
405,294,28,0.12198448628697,1
406,294,28,0.119080640819806,1
415,289,28,0.143781428334142,1
415,290,28,0.193757361130255,1
415,291,28,0.149717699094284,1
416,277,28,0.132469442094044,1
416,278,28,0.113935763695388,1
416,284,28,0.117438521696144,1
416,288,28,0.141574690911434,1
416,291,28,0.252367526977739,1
417,280,28,0.137377992843245,1
417,281,28,0.123420003845853,1
417,282,28,0.127945653342383,1
417,283,28,0.152984884439264,1
417,284,28,0.1494072962303,1
417,285,28,0.12828261303978,1
417,286,28,0.133965586960428,1
417,287,28,0.178631342537315,1
417,288,28,0.20166479665733,1
417,289,28,0.225861051444272,1
418,282,28,0.180725033820805,1
418,283,28,0.180428739642599,1
418,284,28,0.183846668875693,1
418,285,28,0.179706240674488,1
418,286,28,0.200429026527061,1
418,288,28,0.242068398343362,1
418,289,28,0.221387467473473,1
419,282,28,0.211130547127768,1
419,283,28,0.166292048476596,1
419,284,28,0.179321714214272,1
419,285,28,0.222154329896781,1
419,288,28,0.256806180763214,1
420,283,28,0.174741632041895,1
420,284,28,0.185769937127551,1
397,293,29,0.118660359793628,1
398,273,29,0.12397101986437,1
398,274,29,0.138112892851527,1
398,292,29,0.147189170577921,1
398,293,29,0.203034587525623,1
398,294,29,0.250840161638903,1
399,273,29,0.180080627252856,1
399,274,29,0.234874523142908,1
399,275,29,0.185080248508837,1
399,292,29,0.143724699169373,1
399,293,29,0.219173157525761,1
400,273,29,0.152809691776798,1
400,274,29,0.235946901030702,1
400,275,29,0.22616958178652,1
400,276,29,0.134051852505773,1
400,292,29,0.114085106136416,1
400,293,29,0.162890124004749,1
400,294,29,0.214848480251938,1
401,274,29,0.151673106414162,1
401,275,29,0.172360491006761,1
401,276,29,0.125620299322717,1
401,293,29,0.126681748278623,1
401,294,29,0.176630982918927,1
402,274,29,0.129866012708275,1
402,275,29,0.168826736294012,1
402,276,29,0.141874247281593,1
402,294,29,0.157316686717174,1
403,274,29,0.11786865995938,1
403,275,29,0.16322656552003,1
403,276,29,0.147444316385418,1
403,294,29,0.127029083395193,1
415,290,29,0.121689287357327,1
415,291,29,0.120024509542983,1
416,276,29,0.164011152127057,1
416,277,29,0.155512388368262,1
416,278,29,0.114966027509441,1
416,289,29,0.131298809811053,1
416,290,29,0.201324822082171,1
416,291,29,0.191813718899769,1
417,279,29,0.149031496427982,1
417,280,29,0.114116903675315,1
417,288,29,0.12146445520358,1
417,289,29,0.167475034692293,1
417,290,29,0.246367496263671,1
417,291,29,0.232215024096882,1
418,280,29,0.1849302112327,1
418,281,29,0.144998744114982,1
418,282,29,0.125834390974436,1
418,283,29,0.118076038797331,1
418,284,29,0.117857177514778,1
418,285,29,0.118976957289263,1
418,286,29,0.132453884853716,1
418,287,29,0.153616548437921,1
418,288,29,0.183081655420387,1
419,281,29,0.183236827410213,1
419,282,29,0.149799689637177,1
419,283,29,0.126883285790909,1
419,284,29,0.132780186487148,1
419,285,29,0.156198897233087,1
419,286,29,0.202117782041108,1
420,280,29,0.199907570442854,1
420,281,29,0.187165401564288,1
420,282,29,0.162497813035936,1
420,283,29,0.138619639629777,1
420,284,29,0.164824285857896,1
420,285,29,0.21990680918622,1
421,282,29,0.19405365530846,1
421,283,29,0.167083830748908,1
421,284,29,0.210622422456166,1
397,293,30,0.119461869757469,1
398,273,30,0.11633274461564,1
398,274,30,0.126962426332169,1
398,293,30,0.166676421837551,1
398,294,30,0.255320623299597,1
399,273,30,0.168568905361009,1
399,274,30,0.220765248521556,1
399,275,30,0.15763768876079,1
399,293,30,0.152571881516435,1
399,294,30,0.235903868361392,1
399,295,30,0.28786959692686,1
400,273,30,0.143034433484212,1
400,274,30,0.212526835945144,1
400,275,30,0.178568147872971,1
400,293,30,0.121920549680051,1
400,294,30,0.169335767784316,1
400,295,30,0.195545360296265,1
401,274,30,0.13771511741677,1
401,275,30,0.134353988009643,1
401,294,30,0.148661926587915,1
402,275,30,0.118372521405397,1
402,294,30,0.122363230305853,1
404,295,30,0.128882137970416,1
405,295,30,0.119826399098778,1
406,295,30,0.118666907731268,1
416,275,30,0.118934643008795,1
416,276,30,0.178777116587867,1
416,277,30,0.156285186332165,1
416,291,30,0.125932869130092,1
417,276,30,0.314002533816329,1
417,277,30,0.262592649784545,1
417,278,30,0.166247037293755,1
417,279,30,0.118293557517131,1
417,290,30,0.182393745108479,1
418,279,30,0.192680307826557,1
418,280,30,0.137585583664789,1
418,288,30,0.124207628884376,1
418,289,30,0.201184064976646,1
419,280,30,0.160899645177152,1
419,281,30,0.115032778787395,1
419,286,30,0.126851853334865,1
419,287,30,0.164703667193674,1
419,288,30,0.231203226409123,1
420,279,30,0.209315732037288,1
420,280,30,0.146797318906892,1
420,281,30,0.121956951973657,1
420,282,30,0.117034457414805,1
420,283,30,0.115840577597819,1
420,284,30,0.139195516612966,1
420,285,30,0.1778666117268,1
420,286,30,0.208750842870318,1
421,282,30,0.137287499402913,1
421,283,30,0.132321630645629,1
421,284,30,0.180281210838975,1
421,285,30,0.241385104563027,1
421,286,30,0.251566440981083,1
421,287,30,0.225294372193632,1
397,293,31,0.118513678924375,1
398,293,31,0.140591310801958,1
398,294,31,0.249694555196712,1
399,273,31,0.140405554290458,1
399,274,31,0.181881121673966,1
399,275,31,0.126057150399721,1
399,293,31,0.114830746646726,1
399,294,31,0.189043847063165,1
399,295,31,0.242962969104381,1
400,273,31,0.120562877207138,1
400,274,31,0.167496609911279,1
400,275,31,0.129300252053202,1
400,294,31,0.143178146583168,1
401,294,31,0.131964402961401,1
401,295,31,0.155304832877317,1
403,295,31,0.154110976614064,1
416,275,31,0.129865635848555,1
416,276,31,0.172634997982387,1
416,277,31,0.138395620079802,1
417,275,31,0.194802546233857,1
417,276,31,0.270192073151487,1
417,277,31,0.214055685169129,1
417,278,31,0.133428950495613,1
417,290,31,0.13921417116912,1
418,276,31,0.236958439627403,1
418,277,31,0.210451281035693,1
418,278,31,0.167724986901769,1
418,279,31,0.134195459612933,1
418,289,31,0.160348841142228,1
419,277,31,0.209573103672507,1
419,278,31,0.196504468284381,1
419,279,31,0.159228319425168,1
419,280,31,0.115781151530677,1
419,287,31,0.11729473793599,1
419,288,31,0.177162343347658,1
419,289,31,0.227818013310497,1
420,278,31,0.228460276488787,1
420,279,31,0.170088863050968,1
420,280,31,0.115747210602119,1
420,284,31,0.120363530191975,1
420,285,31,0.134820599227683,1
420,286,31,0.145101155743969,1
420,287,31,0.173719517819294,1
420,288,31,0.228343402868034,1
420,289,31,0.222068311665627,1
421,283,31,0.117063216522208,1
421,284,31,0.152954453016852,1
421,285,31,0.200411290566476,1
421,286,31,0.20352956921448,1
421,287,31,0.175396260929756,1
422,284,31,0.182901834449482,1
422,285,31,0.253043801745784,1
397,294,32,0.17817838070727,1
398,293,32,0.116148978394538,1
398,294,32,0.224831776886986,1
398,295,32,0.287703142699158,1
399,274,32,0.124365321123581,1
399,294,32,0.152942004869216,1
399,295,32,0.194522598346019,1
400,274,32,0.114143319186333,1
400,294,32,0.120713585764652,1
400,295,32,0.127463767528806,1
401,294,32,0.114364771379464,1
401,295,32,0.128863612959791,1
402,295,32,0.150620654984078,1
403,295,32,0.134368120249153,1
416,275,32,0.128394693475965,1
416,276,32,0.142982897917464,1
416,292,32,0.116776885572858,1
417,275,32,0.169297104332389,1
417,276,32,0.200180817293791,1
417,277,32,0.15518762950431,1
417,291,32,0.17116656408231,1
418,276,32,0.18271718496341,1
418,277,32,0.158866251448908,1
418,278,32,0.120539299920888,1
418,289,32,0.114477464212694,1
418,290,32,0.19361295319619,1
419,277,32,0.157282074507239,1
419,278,32,0.142543361714953,1
419,288,32,0.116907408581605,1
419,289,32,0.158040469363707,1
419,290,32,0.211961216612466,1
420,278,32,0.177302570494202,1
420,279,32,0.134889694102023,1
420,287,32,0.114426917902712,1
420,288,32,0.151915332999373,1
420,289,32,0.160139813543,1
421,284,32,0.124611587173919,1
421,285,32,0.149345444128709,1
421,286,32,0.150857770409333,1
421,287,32,0.136280224031798,1
422,284,32,0.146965751648125,1
397,294,33,0.155609041109648,1
398,294,33,0.183780106027598,1
398,295,33,0.249707674625724,1
399,294,33,0.122461249163725,1
399,295,33,0.155693646116852,1
402,295,33,0.12624313067168,1
403,295,33,0.126332104896265,1
416,275,33,0.114495906785256,1
416,292,33,0.119939421684263,1
416,293,33,0.126031217740219,1
417,275,33,0.134791769459081,1
417,276,33,0.13572606358999,1
417,291,33,0.146787685430292,1
418,275,33,0.12722322503547,1
418,276,33,0.139944784398083,1
418,277,33,0.121365352874012,1
418,290,33,0.126138234123913,1
419,276,33,0.121573037910486,1
419,277,33,0.120392583721036,1
419,290,33,0.147379543620994,1
421,285,33,0.114657603158989,1
421,286,33,0.114907084293815,1
421,287,33,0.113939014110476,1
422,284,33,0.129545693722902,1
422,285,33,0.179106550867724,1
422,286,33,0.202704317088261,1
397,294,34,0.128346478985501,1
398,294,34,0.140087237372349,1
398,295,34,0.206269692686915,1
399,295,34,0.126158396118948,1
403,295,34,0.129274931790746,1
404,295,34,0.138815547799992,1
417,291,34,0.116692775194038,1
419,291,34,0.159933624168541,1
422,285,34,0.14122812129117,1
422,286,34,0.174939730709234,1
422,287,34,0.174726769636676,1
391,275,35,0.140185951065331,1
392,274,35,0.12069995993039,1
397,294,35,0.118712743294747,1
398,294,35,0.114315355648642,1
398,295,35,0.180512343616171,1
403,295,35,0.143007075823893,1
404,294,35,0.120368829781792,1
404,295,35,0.196257896035521,1
404,296,35,0.169929863579608,1
405,295,35,0.141785873677187,1
416,293,35,0.118959869056322,1
417,292,35,0.185471169807431,1
418,291,35,0.119527996861512,1
419,291,35,0.121655876387751,1
422,285,35,0.114862426416962,1
422,286,35,0.153226168875175,1
422,287,35,0.173829631518813,1
422,288,35,0.12955423195094,1
423,285,35,0.186048083154851,1
391,275,36,0.121604906110583,1
397,294,36,0.117277225735863,1
403,295,36,0.151280183048303,1
404,294,36,0.135753056167455,1
404,295,36,0.246281030511599,1
404,296,36,0.199471543746489,1
405,295,36,0.177078739374087,1
417,292,36,0.155539039416606,1
419,292,36,0.17646863881755,1
422,286,36,0.12986731994043,1
422,287,36,0.15574854986735,1
422,288,36,0.120509363126858,1
423,285,36,0.166144201697583,1
397,294,37,0.115716025460266,1
403,295,37,0.148609872839051,1
404,294,37,0.140037480112406,1
404,295,37,0.278015421853473,1
404,296,37,0.230022572012946,1
405,295,37,0.209642634290899,1
405,296,37,0.1761129892334,1
417,292,37,0.125360866735902,1
417,293,37,0.218112909810214,1
417,294,37,0.20313129915134,1
418,292,37,0.174715664051794,1
419,292,37,0.138621947895564,1
422,287,37,0.125352257846667,1
423,285,37,0.157879679808676,1
423,288,37,0.210046863448366,1
390,275,38,0.135883060994086,1
403,295,38,0.125252048491671,1
404,294,38,0.125107876094931,1
404,295,38,0.253846936917169,1
404,296,38,0.220569022375952,1
405,295,38,0.206506972988297,1
405,296,38,0.189679950940402,1
417,293,38,0.173535645606395,1
418,292,38,0.128801242676085,1
418,293,38,0.228088598589659,1
423,284,38,0.11506874533695,1
423,285,38,0.151478705682828,1
423,288,38,0.212496663613789,1
423,289,38,0.13497554745705,1
424,284,38,0.116954351170512,1
398,295,39,0.126014164837876,1
404,295,39,0.194243003764169,1
405,295,39,0.181798660056422,1
405,296,39,0.179507506056371,1
417,293,39,0.129158599905842,1
417,294,39,0.133973642336949,1
418,293,39,0.150178233449334,1
423,284,39,0.114979782889231,1
423,285,39,0.140935642817633,1
423,286,39,0.16476701495728,1
423,289,39,0.167198890732256,1
424,284,39,0.133192671227863,1
424,285,39,0.199593481419732,1
425,285,39,0.181843117726549,1
404,295,40,0.127129704940508,1
404,296,40,0.118614182701027,1
405,295,40,0.145532530578162,1
405,296,40,0.150012839139595,1
419,293,40,0.121658655728188,1
420,292,40,0.134410128331098,1
420,293,40,0.172208275010366,1
421,291,40,0.117473557873264,1
421,292,40,0.183821348613236,1
422,291,40,0.152134052959531,1
423,285,40,0.125826524027775,1
423,286,40,0.128785767873821,1
423,287,40,0.145952576067015,1
423,288,40,0.180716248278575,1
423,289,40,0.192634295610084,1
423,290,40,0.156935551994441,1
424,284,40,0.157965380064441,1
424,285,40,0.188597656931218,1
424,286,40,0.222195313391362,1
424,289,40,0.254217908204321,1
425,285,40,0.171443520646118,1
397,295,41,0.132459490642055,1
405,296,41,0.115077742862772,1
406,296,41,0.118210495279408,1
419,293,41,0.121234947633929,1
420,292,41,0.158442731784509,1
420,293,41,0.224637175948926,1
421,291,41,0.126813790503116,1
421,292,41,0.245111964551821,1
421,293,41,0.253341662247201,1
422,290,41,0.122656462498831,1
422,291,41,0.186920383861774,1
422,292,41,0.242448390710069,1
423,287,41,0.114675433334505,1
423,288,41,0.147824332305857,1
423,289,41,0.198214410380827,1
423,290,41,0.213460576563339,1
423,291,41,0.190625468424855,1
424,283,41,0.121845130628529,1
424,284,41,0.174853406279557,1
424,285,41,0.170278553035798,1
424,286,41,0.17402462109346,1
424,289,41,0.278240854627399,1
424,290,41,0.236708346095531,1
425,284,41,0.170610295581442,1
425,285,41,0.170133026299438,1
389,285,42,0.129840857321946,1
389,286,42,0.120563206959393,1
390,286,42,0.11445314498387,1
397,295,42,0.139464959536101,1
419,293,42,0.114467771851763,1
420,292,42,0.155833849709663,1
420,293,42,0.237318788181189,1
421,291,42,0.120737198381501,1
421,292,42,0.253681024425315,1
421,293,42,0.287577483536177,1
422,290,42,0.139260831113237,1
422,291,42,0.200640656813732,1
422,292,42,0.25362400083889,1
423,288,42,0.12641232890922,1
423,289,42,0.200892611090473,1
423,291,42,0.261849034895232,1
424,283,42,0.1277988782582,1
424,284,42,0.171316730903976,1
424,285,42,0.143312579511513,1
424,286,42,0.137568966506498,1
424,287,42,0.187118765173903,1
425,283,42,0.13747496356002,1
425,284,42,0.182445751749877,1
425,285,42,0.166565424873062,1
425,286,42,0.189312430275063,1
426,285,42,0.18077204707091,1
389,285,43,0.164287437409489,1
389,286,43,0.162373720196167,1
390,285,43,0.124570085497223,1
390,286,43,0.141680352955508,1
397,295,43,0.15733643652189,1
420,292,43,0.136924830806473,1
420,293,43,0.208953993813282,1
421,292,43,0.222755633134223,1
422,291,43,0.201562879656726,1
424,283,43,0.12294465419305,1
424,284,43,0.146183296653891,1
424,285,43,0.115566435705047,1
424,287,43,0.150462362124694,1
425,282,43,0.136638264319798,1
425,283,43,0.16639550824668,1
425,284,43,0.182356801079025,1
425,285,43,0.166468265726427,1
425,286,43,0.190559046899156,1
426,285,43,0.207269218880031,1
387,282,44,0.116586689182779,1
388,285,44,0.119846808408004,1
389,285,44,0.177045375511976,1
389,286,44,0.190090798696706,1
389,287,44,0.115448325513337,1
390,285,44,0.121364057418724,1
390,286,44,0.154520281600889,1
390,287,44,0.121113928556253,1
396,294,44,0.118602641372093,1
396,295,44,0.189164171305731,1
397,295,44,0.171288855061542,1
414,270,44,0.121012046886248,1
414,271,44,0.117604469518597,1
421,291,44,0.1140884625433,1
421,292,44,0.17932515305922,1
424,283,44,0.114966227716167,1
424,284,44,0.115021319896526,1
424,287,44,0.121137164313382,1
425,281,44,0.115715660377412,1
425,282,44,0.192554495564314,1
425,284,44,0.177710344488412,1
425,285,44,0.163401981942955,1
386,282,45,0.17799520332948,1
387,282,45,0.122359237948191,1
388,285,45,0.119011086647681,1
389,285,45,0.152856422382113,1
389,286,45,0.176040879481298,1
389,287,45,0.122423151001378,1
390,286,45,0.136458561117555,1
390,287,45,0.123891372917862,1
392,290,45,0.119399676126756,1
396,294,45,0.128292211185781,1
396,295,45,0.208594563855064,1
397,295,45,0.172862680137769,1
414,270,45,0.115199268345696,1
414,271,45,0.121527119908943,1
421,291,45,0.124380866587042,1
421,292,45,0.139364597081843,1
422,289,45,0.154393880495333,1
423,288,45,0.115320793828621,1
424,282,45,0.115124626567348,1
424,288,45,0.167099317328038,1
425,281,45,0.133150733807115,1
425,284,45,0.178990937371662,1
425,285,45,0.154507539031597,1
385,282,46,0.173545809041976,1
386,281,46,0.153145332465174,1
386,282,46,0.195495320391531,1
386,283,46,0.15205718535346,1
387,282,46,0.114461506558914,1
389,286,46,0.135143320693772,1
396,294,46,0.131722812326968,1
401,295,46,0.119848574937943,1
421,290,46,0.141925217558761,1
421,291,46,0.133785459790999,1
422,289,46,0.231285782241597,1
423,288,46,0.134865139335873,1
424,282,46,0.131655342660172,1
424,283,46,0.117834118410643,1
424,288,46,0.146710087658513,1
425,285,46,0.151734004589586,1
385,281,47,0.160486866014781,1
385,282,47,0.184385860920486,1
385,283,47,0.13313538855038,1
386,281,47,0.156360758482947,1
386,282,47,0.185238188062233,1
386,283,47,0.148284124718333,1
394,270,47,0.114422901991317,1
401,295,47,0.137059016420626,1
402,295,47,0.129694305998222,1
408,270,47,0.115804081089283,1
409,270,47,0.119304825245908,1
421,289,47,0.139977453425085,1
421,291,47,0.131995964962975,1
422,288,47,0.151035188899522,1
423,288,47,0.151466021997867,1
424,282,47,0.136530729753989,1
424,283,47,0.125304702860714,1
424,288,47,0.133717742810011,1
425,285,47,0.145269788691928,1
384,281,48,0.136189012202624,1
384,282,48,0.129922765426776,1
385,280,48,0.115022120723431,1
385,281,48,0.182545360484694,1
385,282,48,0.187735519659877,1
385,283,48,0.128084384826912,1
386,281,48,0.145449586109101,1
386,282,48,0.154992298400541,1
386,283,48,0.123920320455126,1
394,269,48,0.115647637197901,1
401,295,48,0.146528135074815,1
402,295,48,0.166816719645292,1
402,296,48,0.325811433151351,1
403,295,48,0.126602784390357,1
408,269,48,0.123815494568556,1
408,270,48,0.128799181724489,1
409,269,48,0.132149876828111,1
409,270,48,0.13347378502546,1
421,289,48,0.174228337326005,1
421,290,48,0.173484486899367,1
421,291,48,0.127375240825138,1
422,288,48,0.174757036182961,1
422,289,48,0.330378501886513,1
423,288,48,0.148507649639925,1
423,289,48,0.271714233115436,1
424,282,48,0.131850685540806,1
424,283,48,0.132853285496017,1
384,281,49,0.174081420919427,1
384,282,49,0.161024739050553,1
385,280,49,0.121859627950894,1
385,281,49,0.193779360316427,1
385,282,49,0.184018952652193,1
385,283,49,0.114105668544904,1
386,281,49,0.125400919858048,1
386,282,49,0.121486560381548,1
401,295,49,0.139902022596697,1
401,296,49,0.284590116533505,1
402,295,49,0.189846252068842,1
402,296,49,0.370724750233865,4
403,295,49,0.172950300022734,1
404,295,49,0.127740500332155,1
408,268,49,0.125567056110361,1
408,269,49,0.122225935599008,1
408,270,49,0.121216387292705,1
409,268,49,0.162547169882426,1
409,269,49,0.14130965253628,1
409,270,49,0.127890784922483,1
421,288,49,0.117806042361482,1
421,289,49,0.210049501466408,1
421,290,49,0.188464413466366,1
422,288,49,0.176578446318547,1
422,289,49,0.316420159583133,1
423,288,49,0.134746063441131,1
384,281,50,0.183053650032424,1
384,282,50,0.173386821347483,1
385,281,50,0.178589675984492,1
385,282,50,0.166309360469997,1
401,295,50,0.132706828387222,1
401,296,50,0.254672565903108,4
402,295,50,0.195150387755677,4
402,296,50,0.349869239098555,4
402,297,50,0.288306424450131,4
403,295,50,0.220248809382375,1
403,296,50,0.316447105053133,4
404,295,50,0.158298547610903,1
408,268,50,0.137030634172942,1
409,267,50,0.168379415582904,1
409,268,50,0.188517951100379,1
409,269,50,0.13101774312092,1
410,268,50,0.129464668883041,1
420,290,50,0.115951574562308,1
421,288,50,0.122651527991868,1
421,289,50,0.216035376387232,1
421,290,50,0.186300060985324,1
422,288,50,0.149277267849937,1
422,289,50,0.255820551272283,1
384,281,51,0.164071202368111,1
384,282,51,0.17028830428106,1
385,281,51,0.149142399177541,1
385,282,51,0.147920737733051,1
401,295,51,0.127977344889485,1
402,295,51,0.180971994706251,1
402,296,51,0.285394947573631,4
403,294,51,0.115112449287636,1
403,295,51,0.237318552643864,1
403,296,51,0.335598385872132,1
404,295,51,0.172186016733137,1
408,268,51,0.127431510692123,1
409,268,51,0.18108012989224,1
420,289,51,0.138783102533449,1
420,290,51,0.140366796623601,1
421,288,51,0.122704971410951,1
421,289,51,0.207072074138859,1
422,288,51,0.117349806562616,1
384,281,52,0.129243758425759,1
384,282,52,0.147925448479555,1
385,282,52,0.120992509065125,1
398,295,52,0.125410141144329,1
399,295,52,0.121713053073437,1
400,295,52,0.114574953111585,1
401,295,52,0.119871881356269,1
402,295,52,0.157166731879101,1
402,296,52,0.220131794439228,1
403,294,52,0.115826998871022,1
403,295,52,0.214714106207925,1
409,268,52,0.154331298228034,1
410,268,52,0.136528185950877,1
417,292,52,0.16307977865898,1
418,291,52,0.137973372316959,1
418,292,52,0.196890207761822,1
419,290,52,0.122862769641952,1
419,291,52,0.14291054085117,1
420,289,52,0.182588463815202,1
420,290,52,0.170524159581625,1
421,288,52,0.127231998800832,1
421,289,52,0.20326517856697,1
384,282,53,0.122819065691266,1
394,294,53,0.135678991455554,1
395,294,53,0.116548367259973,1
395,295,53,0.131038658835396,1
397,295,53,0.116584145379667,1
398,295,53,0.144531661822292,1
399,295,53,0.141706344499341,1
400,295,53,0.125700770649863,1
401,295,53,0.117553028166778,1
402,295,53,0.13796795495848,1
403,294,53,0.119216746063158,1
403,295,53,0.180107125201938,1
409,268,53,0.125759195683373,1
411,293,53,0.120517406726513,1
417,292,53,0.191170490018446,1
418,291,53,0.156066325049611,1
418,292,53,0.234191347131235,1
419,289,53,0.126983094732453,1
419,290,53,0.147906841030866,1
419,291,53,0.158211846321505,1
420,288,53,0.131998332113093,1
420,289,53,0.23035491517877,1
420,290,53,0.209626288000532,1
421,288,53,0.134848463293251,1
421,289,53,0.210664065455257,1
393,294,54,0.164406925494551,1
394,294,54,0.153991394314072,1
394,295,54,0.163727553410679,1
395,295,54,0.122915176696804,1
396,295,54,0.114559537193652,1
397,295,54,0.13115990167353,1
398,295,54,0.156608402426637,1
399,295,54,0.160997546266361,1
400,295,54,0.139982387932047,1
401,295,54,0.123457666264149,1
402,294,54,0.117610499274121,1
402,295,54,0.131586624645552,1
403,294,54,0.127916552705858,1
403,295,54,0.154889992763351,1
404,294,54,0.120779795306759,1
405,294,54,0.117296634011458,1
409,268,54,0.114628278762005,1
410,268,54,0.171631008356959,1
410,269,54,0.12092664105214,1
410,293,54,0.118063437550434,1
411,269,54,0.12249132728015,1
411,292,54,0.114415647441702,1
411,293,54,0.140428106989344,1
412,293,54,0.114136335504642,1
418,291,54,0.150701102757492,1
419,289,54,0.148688377429532,1
419,290,54,0.163483795832855,1
419,291,54,0.157150844886518,1
420,288,54,0.141764062920876,1
420,289,54,0.256903010157594,1
420,290,54,0.235204346059352,1
421,288,54,0.130850817818568,1
421,289,54,0.202705141468899,1
392,294,55,0.135742362772892,1
393,293,55,0.116959686090927,1
393,294,55,0.217115244361967,1
393,295,55,0.22753419083366,1
394,294,55,0.165222037738921,1
394,295,55,0.17539259832435,1
395,295,55,0.120153348459854,1
396,295,55,0.136006188130822,1
397,295,55,0.150204024786441,1
398,295,55,0.164322049619424,1
398,296,55,0.206111647141722,1
399,268,55,0.116976303249219,1
399,295,55,0.179189283353192,1
399,296,55,0.219044012410367,1
400,268,55,0.130764858471745,1
400,295,55,0.156869154022473,1
401,295,55,0.141081087115929,1
402,294,55,0.135549893447625,1
402,295,55,0.148546430860515,1
402,296,55,0.140001183810596,1
403,266,55,0.120925957993897,1
403,294,55,0.143619060679031,1
403,295,55,0.156089925889594,1
403,296,55,0.17140064107607,1
404,294,55,0.1510127186387,1
404,295,55,0.163218675019637,1
405,294,55,0.160117166629185,1
405,295,55,0.173479446400608,1
406,294,55,0.132249803538317,1
409,268,55,0.117342634451065,1
410,268,55,0.189196381034949,1
410,269,55,0.150270246105414,1
411,269,55,0.141188598128006,1
411,293,55,0.134240765217431,1
412,293,55,0.113917674428815,1
419,289,55,0.153482527699896,1
419,290,55,0.163791666670592,1
419,291,55,0.142670281002624,1
420,288,55,0.128194474972699,1
420,289,55,0.236399627323423,1
420,290,55,0.224812439272589,1
421,289,55,0.174487687474756,1
382,281,56,0.133806717034596,1
382,282,56,0.127861978707614,1
383,281,56,0.122942345927263,1
383,282,56,0.120149544532053,1
392,294,56,0.166552741188101,1
393,293,56,0.116669091915992,1
393,294,56,0.234727288760941,1
393,295,56,0.248425974717047,1
394,294,56,0.159511470620629,1
394,295,56,0.177239505375386,1
394,296,56,0.117203431891886,1
395,295,56,0.12514946020969,1
396,294,56,0.114965061806407,1
396,295,56,0.15330752346729,1
396,296,56,0.18949914071273,1
397,294,56,0.125825652539672,1
397,295,56,0.165518873652974,1
397,296,56,0.197030093379244,1
398,268,56,0.143612206542869,1
398,269,56,0.117694444776814,1
398,295,56,0.164400189127051,1
398,296,56,0.194142370441988,1
399,268,56,0.164405052972816,1
399,269,56,0.122322211480673,1
399,295,56,0.185319118687164,1
399,296,56,0.219919057127129,1
400,267,56,0.120321686986158,1
400,268,56,0.1538654878369,1
400,295,56,0.163906585331546,1
400,296,56,0.17781955136923,1
401,268,56,0.118860825611085,1
401,294,56,0.131707679053826,1
401,295,56,0.156051132892137,1
401,296,56,0.147070271336172,1
402,294,56,0.151459803812483,1
402,295,56,0.184312349721298,1
402,296,56,0.176262614319218,1
403,266,56,0.125479942630645,1
403,267,56,0.114483823720474,1
403,294,56,0.157689518749195,1
403,295,56,0.180018692713201,1
403,296,56,0.1729994213319,1
404,266,56,0.130654650557295,1
404,267,56,0.114478029502275,1
404,293,56,0.114890738003448,1
404,294,56,0.182602808038305,1
404,295,56,0.178705654563408,1
404,296,56,0.156606847880291,1
405,293,56,0.1270269517824,1
405,294,56,0.203773797866955,1
405,295,56,0.195987039888434,1
405,296,56,0.155289534728047,1
406,294,56,0.160168961286991,1
406,295,56,0.170764525421967,1
409,268,56,0.131997142649601,1
410,268,56,0.186699932702275,1
410,269,56,0.173004673814251,1
411,269,56,0.148214358562616,1
419,289,56,0.145721784818941,1
419,290,56,0.162754230744989,1
419,291,56,0.129766085998069,1
420,289,56,0.188881879821508,1
420,290,56,0.200676529148356,1
421,289,56,0.140221034349916,1
382,280,57,0.125161237075949,1
382,281,57,0.169277012998551,1
382,282,57,0.160342811386703,1
383,280,57,0.118299033759942,1
383,281,57,0.144573340151982,1
383,282,57,0.129159012096161,1
391,294,57,0.129678607435499,1
392,293,57,0.118120543574923,1
392,294,57,0.203648209365171,1
392,295,57,0.191209671652489,1
393,294,57,0.216195824413142,1
393,295,57,0.229292382751168,1
394,294,57,0.148569454634051,1
394,295,57,0.174424763678336,1
394,296,57,0.130739608870486,1
395,294,57,0.114410736488472,1
395,295,57,0.14464124556283,1
395,296,57,0.142088527363172,1
396,294,57,0.130048989879338,1
396,295,57,0.167479615893267,1
396,296,57,0.190305078778285,1
397,293,57,0.12546469158884,1
397,294,57,0.151817467240762,1
397,295,57,0.174069396738976,1
397,296,57,0.191327098785956,1
398,267,57,0.119226862391275,1
398,268,57,0.173038120114426,1
398,269,57,0.125403263454434,1
398,293,57,0.131259180656092,1
398,294,57,0.141318991591223,1
398,295,57,0.159406750725855,1
398,296,57,0.17188670767717,1
399,267,57,0.141240227909684,1
399,268,57,0.209585587150742,1
399,269,57,0.146588679944251,1
399,293,57,0.116720898350664,1
399,294,57,0.133192223706945,1
399,295,57,0.181763176358384,1
399,296,57,0.206417963433113,1
400,267,57,0.123222105385241,1
400,268,57,0.157992490410569,1
400,293,57,0.123878406588111,1
400,294,57,0.138607744994855,1
400,295,57,0.174769331231335,1
401,267,57,0.118023584635015,1
401,293,57,0.140212284138285,1
401,294,57,0.154109469175183,1
401,295,57,0.173594730144415,1
401,296,57,0.164540981563175,1
402,266,57,0.115479899291777,1
402,267,57,0.131648052779958,1
402,293,57,0.127003539372278,1
402,294,57,0.166639289378237,1
402,295,57,0.213986908270177,1
402,296,57,0.216313640183195,1
403,267,57,0.118548597332832,1
403,294,57,0.170077887011615,1
403,295,57,0.206933672406586,1
403,296,57,0.192152633556965,1
404,293,57,0.125371454138669,1
404,294,57,0.202368652846153,1
404,295,57,0.202299381318819,1
404,296,57,0.145941423374668,1
405,293,57,0.138837876738419,1
405,294,57,0.227130008783658,1
405,295,57,0.216656535421186,1
405,296,57,0.13900156340255,1
406,293,57,0.114998225461792,1
406,294,57,0.181524471056184,1
406,295,57,0.192216511279553,1
406,296,57,0.131664293078528,1
407,294,57,0.122132132859256,1
407,295,57,0.144038281787246,1
408,268,57,0.153359471224358,1
409,268,57,0.155808176141218,1
409,269,57,0.1407344703882,1
410,269,57,0.178886712105271,1
412,294,57,0.121211005264825,1
419,289,57,0.129686038638108,1
419,290,57,0.167901922540442,1
419,291,57,0.143601524925172,1
420,289,57,0.153118752078028,1
420,290,57,0.210756089888204,1
420,291,57,0.185641581062196,1
421,289,57,0.132318427338007,1
421,290,57,0.188051280998007,1
381,281,58,0.124848196193924,1
381,282,58,0.121932597414234,1
382,280,58,0.162684075952685,1
382,281,58,0.197663370808578,1
382,282,58,0.174697492347157,1
382,283,58,0.115953282207916,1
383,280,58,0.145252735789586,1
383,281,58,0.157867160999843,1
383,282,58,0.127484553697752,1
391,293,58,0.114094574736888,1
391,294,58,0.168869556979729,1
391,295,58,0.144220116602282,1
392,293,58,0.120036180417446,1
392,294,58,0.216288131490879,1
392,295,58,0.196783886213237,1
393,294,58,0.169073850278721,1
393,295,58,0.17737211288946,1
393,296,58,0.122181619251276,1
394,294,58,0.122088016718251,1
394,295,58,0.150987857674027,1
394,296,58,0.127849813204769,1
395,294,58,0.114793932162801,1
395,295,58,0.151302405994934,1
395,296,58,0.136717546183452,1
396,294,58,0.133335760152907,1
396,295,58,0.168773999486905,1
396,296,58,0.165374925016693,1
397,293,58,0.122959681474396,1
397,294,58,0.165405957059284,1
397,295,58,0.172048074298648,1
397,296,58,0.163838997896086,1
398,267,58,0.160290533877381,1
398,268,58,0.178556217907451,1
398,293,58,0.151293808882565,1
398,294,58,0.172105698505252,1
398,295,58,0.156210073479166,1
398,296,58,0.143861369702306,1
399,267,58,0.184922662261428,1
399,268,58,0.224280996405795,1
399,269,58,0.143237655088374,1
399,293,58,0.15619504619782,1
399,294,58,0.16755509382912,1
399,295,58,0.170840026911553,1
400,267,58,0.13055000132372,1
400,268,58,0.146460288548298,1
400,293,58,0.16557183422054,1
400,294,58,0.171425360718347,1
400,295,58,0.186913164642757,1
401,267,58,0.124844722018378,1
401,293,58,0.168656878551962,1
401,294,58,0.174942533603404,1
401,295,58,0.198049110286019,1
402,266,58,0.123145826622482,1
402,267,58,0.155553960706156,1
402,293,58,0.143816829594115,1
402,294,58,0.171066437165378,1
402,295,58,0.222291530388696,1
403,267,58,0.123101686927744,1
403,293,58,0.12190711227565,1
403,294,58,0.170522887680069,1
403,295,58,0.219311747687895,1
403,296,58,0.199717209176647,1
404,293,58,0.129247962767013,1
404,294,58,0.202412345019973,1
404,295,58,0.229975417440446,1
404,296,58,0.15416009792323,1
405,293,58,0.13692540787292,1
405,294,58,0.220695270382246,1
405,295,58,0.232505653602416,1
405,296,58,0.139796808073541,1
406,293,58,0.114653964107315,1
406,294,58,0.187714969028255,1
406,295,58,0.204895379501978,1
406,296,58,0.130276554266057,1
407,267,58,0.129295823951489,1
407,268,58,0.128445663753133,1
407,294,58,0.146683236403443,1
407,295,58,0.174428438060608,1
407,296,58,0.116202174499429,1
408,267,58,0.154490003277737,1
408,268,58,0.172011660228175,1
408,269,58,0.131168946306817,1
408,295,58,0.119481866876377,1
409,268,58,0.17255887231889,1
409,269,58,0.178101607316129,1
410,269,58,0.181588077910848,1
412,294,58,0.135679368315274,1
412,295,58,0.119600389258405,1
418,291,58,0.11456845228141,1
419,290,58,0.163096666685196,1
419,291,58,0.174512112695377,1
419,292,58,0.134975347250323,1
420,289,58,0.127924031015932,1
420,290,58,0.227909307577735,1
420,291,58,0.244411759191538,1
421,289,58,0.129299121474042,1
421,290,58,0.217932511772862,1
381,280,59,0.128184876826698,1
381,281,59,0.138483204634169,1
381,282,59,0.124442706911767,1
382,280,59,0.201345572920519,1
382,281,59,0.213993927282467,1
382,282,59,0.166019143154781,1
382,283,59,0.123955168202386,1
383,280,59,0.169839829437059,1
383,281,59,0.163539547517724,1
383,282,59,0.121911893683351,1
391,293,59,0.120926664605872,1
391,294,59,0.201435029996621,1
391,295,59,0.171478497938907,1
392,294,59,0.197813054778727,1
392,295,59,0.177736230040449,1
393,294,59,0.122713356539727,1
393,295,59,0.128236247517319,1
394,295,59,0.124607159072205,1
395,295,59,0.145321559796002,1
395,296,59,0.122011172665912,1
396,294,59,0.127881375206342,1
396,295,59,0.163544811776942,1
396,296,59,0.13654542728308,1
397,294,59,0.163802560271882,1
397,295,59,0.173233298118933,1
397,296,59,0.138084734364302,1
398,266,59,0.128584359907063,1
398,267,59,0.190843941070822,1
398,268,59,0.166238169313462,1
398,293,59,0.164375351716111,1
398,294,59,0.200391882290881,1
398,295,59,0.162073327668504,1
398,296,59,0.118778163786815,1
399,266,59,0.153368362758383,1
399,267,59,0.230477111943071,1
399,268,59,0.214062751288884,1
399,269,59,0.122361605098309,1
399,292,59,0.115754429821136,1
399,293,59,0.220741789003968,1
399,294,59,0.230923620050407,1
399,295,59,0.1645566094647,1
399,296,59,0.123543496065443,1
400,266,59,0.121062922948486,1
400,267,59,0.161890597811632,1
400,268,59,0.146214163820355,1
400,292,59,0.12970233782101,1
400,293,59,0.238023704287976,1
400,294,59,0.240250332837794,1
400,295,59,0.195327146741355,1
400,296,59,0.172717553814861,1
401,266,59,0.116314537580404,1
401,267,59,0.144921688079051,1
401,292,59,0.115583041086471,1
401,293,59,0.199187721269652,1
401,294,59,0.211833037200106,1
401,295,59,0.223889863123607,1
401,296,59,0.239376630683787,1
402,266,59,0.125790345494628,1
402,267,59,0.169963462979044,1
402,268,59,0.116226175752864,1
402,293,59,0.150673945303899,1
402,294,59,0.175911357506184,1
402,295,59,0.216326170768895,1
402,296,59,0.234665648642942,1
403,267,59,0.137352413489731,1
403,268,59,0.126721730739571,1
403,293,59,0.128213541719172,1
403,294,59,0.166689894572551,1
403,295,59,0.217610296712021,1
403,296,59,0.194960014712603,1
404,268,59,0.124627285736642,1
404,293,59,0.131537891972973,1
404,294,59,0.194225479787176,1
404,295,59,0.254811933338415,1
404,296,59,0.187295818581238,1
405,293,59,0.128720700687741,1
405,294,59,0.200494764994518,1
405,295,59,0.245303809703177,1
405,296,59,0.168806621406442,1
406,268,59,0.114725331916843,1
406,294,59,0.178216596638279,1
406,295,59,0.202257055261485,1
406,296,59,0.137762766617653,1
407,268,59,0.127166484093835,1
407,294,59,0.16221839510708,1
407,295,59,0.184518821740547,1
407,296,59,0.121599900942423,1
408,267,59,0.126774597092207,1
408,268,59,0.153333456126792,1
408,269,59,0.141376333153037,1
408,294,59,0.119251464264889,1
408,295,59,0.140302082743509,1
409,268,59,0.170695960506609,1
409,269,59,0.216385078653921,1
409,270,59,0.146332026697873,1
410,269,59,0.215801228732275,1
410,270,59,0.154011426763579,1
412,294,59,0.123001183151092,1
412,295,59,0.125427806443717,1
413,295,59,0.11769647039781,1
418,291,59,0.12018534620548,1
419,290,59,0.142856261274583,1
419,291,59,0.187844950301153,1
419,292,59,0.153527774420062,1
420,290,59,0.218633753497376,1
420,291,59,0.270527996484653,1
421,289,59,0.127164034505653,1
421,290,59,0.221643001917556,1
381,280,60,0.133705012017585,1
381,281,60,0.144584787265985,1
381,282,60,0.122917143433469,1
382,279,60,0.119576117137046,1
382,280,60,0.214062233106768,1
382,281,60,0.207063241489165,1
382,282,60,0.1493466689228,1
382,283,60,0.127757906540485,1
383,279,60,0.119858655935461,1
383,280,60,0.178424493658346,1
383,281,60,0.156445116175959,1
383,282,60,0.115081593898038,1
390,294,60,0.133287887191565,1
390,295,60,0.114527162588306,1
391,293,60,0.119442956110257,1
391,294,60,0.209585351613417,1
391,295,60,0.178479738937966,1
392,294,60,0.16003829695585,1
392,295,60,0.144716111101637,1
395,295,60,0.126372876407253,1
396,294,60,0.114689942433736,1
396,295,60,0.148657368940673,1
396,296,60,0.114034736479427,1
397,294,60,0.147277815050251,1
397,295,60,0.169756402116482,1
397,296,60,0.119549866502155,1
398,266,60,0.144062530354873,1
398,267,60,0.190832917924004,1
398,268,60,0.140207184755195,1
398,293,60,0.154853413816751,1
398,294,60,0.204088263749798,1
398,295,60,0.172561062816015,1
399,266,60,0.188963681934542,1
399,267,60,0.250396786177991,1
399,268,60,0.182994918800391,1
399,292,60,0.116342837390024,1
399,293,60,0.254625929512723,1
399,294,60,0.272294008241357,1
399,295,60,0.166690530523329,1
400,266,60,0.14979634500716,1
400,267,60,0.197584112498656,1
400,268,60,0.146820154250568,1
400,292,60,0.134106308735354,1
400,293,60,0.288515770024747,1
400,294,60,0.297033412100155,1
400,295,60,0.196888523669947,1
400,296,60,0.151547011507129,1
401,266,60,0.119962657441392,1
401,267,60,0.158005386079122,1
401,268,60,0.114035596190664,1
401,293,60,0.211330471209378,1
401,294,60,0.239858492943631,1
401,295,60,0.232691468998247,1
401,296,60,0.238405204093563,1
402,266,60,0.116116474243664,1
402,267,60,0.157433006825212,1
402,268,60,0.121388883052797,1
402,293,60,0.139763597310691,1
402,294,60,0.177352610398935,1
402,295,60,0.207262623834926,1
402,296,60,0.209064507926255,1
403,267,60,0.137619583477678,1
403,268,60,0.141160368979584,1
403,293,60,0.123759460238897,1
403,294,60,0.163580271921247,1
403,295,60,0.207134232438973,1
403,296,60,0.185337372829865,1
404,268,60,0.141155316703959,1
404,293,60,0.130057021702126,1
404,294,60,0.181194400825549,1
404,295,60,0.250223383599197,1
404,296,60,0.218264454525233,1
405,268,60,0.126140719042693,1
405,269,60,0.12438439964692,1
405,293,60,0.121148234567665,1
405,294,60,0.175795237604872,1
405,295,60,0.232458616798579,1
405,296,60,0.196168745157941,1
406,268,60,0.126154321323222,1
406,269,60,0.130828029582357,1
406,294,60,0.157117257263948,1
406,295,60,0.179291329899325,1
406,296,60,0.140664174273502,1
407,294,60,0.158239993031864,1
407,295,60,0.169525811075135,1
407,296,60,0.119341969482088,1
408,268,60,0.116945907157405,1
408,269,60,0.136068864613051,1
408,294,60,0.127282097589897,1
408,295,60,0.144882953965926,1
409,268,60,0.145722432546585,1
409,269,60,0.225010149303342,1
409,270,60,0.194985558735519,1
410,269,60,0.244492854692596,1
410,270,60,0.212332282114549,1
411,270,60,0.123262900449961,1
413,295,60,0.116426888884513,1
415,275,60,0.126637490815222,1
415,276,60,0.11808041979158,1
418,291,60,0.122455007424608,1
418,292,60,0.128908918564289,1
419,290,60,0.13096127304721,1
419,291,60,0.1842179699151,1
419,292,60,0.173110371188924,1
420,290,60,0.188619255703937,1
420,291,60,0.246289933822491,1
421,289,60,0.121088890938587,1
421,290,60,0.194127213615113,1
381,280,61,0.123007048030489,1
381,281,61,0.134914178206975,1
381,282,61,0.121277356129327,1
381,283,61,0.12816988487595,1
382,279,61,0.122377680520752,1
382,280,61,0.183746459520697,1
382,281,61,0.168510021029715,1
382,282,61,0.129773705630539,1
382,283,61,0.123215993191652,1
382,284,61,0.115415962684858,1
383,279,61,0.12332346887313,1
383,280,61,0.162859892789062,1
383,281,61,0.135338263160954,1
390,294,61,0.149675679235472,1
390,295,61,0.141881525384941,1
391,294,61,0.179472670085978,1
391,295,61,0.160398763278299,1
392,294,61,0.118317287902643,1
396,295,61,0.122256590781879,1
397,294,61,0.121423989891115,1
397,295,61,0.149918153134875,1
398,266,61,0.137577280974077,1
398,267,61,0.170652963167898,1
398,268,61,0.122831254747844,1
398,293,61,0.1299307501421,1
398,294,61,0.18090265251772,1
398,295,61,0.170301565032468,1
399,266,61,0.196679578508783,1
399,267,61,0.25253958699378,1
399,268,61,0.168255169643874,1
399,293,61,0.23916045452674,1
399,294,61,0.269891362648434,1
399,295,61,0.178367352303258,1
400,266,61,0.167140395037549,1
400,267,61,0.232592425553011,1
400,268,61,0.163549310539852,1
400,292,61,0.121134290758015,1
400,293,61,0.286788056637117,1
400,294,61,0.308608305102615,1
400,295,61,0.20193564102755,1
400,296,61,0.139733460309935,1
401,267,61,0.158862588843501,1
401,268,61,0.12348835677762,1
401,293,61,0.204506366055717,1
401,294,61,0.242525741167657,1
401,295,61,0.223580013772338,1
401,296,61,0.201435618839933,1
402,267,61,0.122472331194874,1
402,293,61,0.125518888727363,1
402,294,61,0.174983411106188,1
402,295,61,0.204161845610183,1
402,296,61,0.182059011238805,1
403,267,61,0.117418477469771,1
403,268,61,0.132852319792983,1
403,293,61,0.115284509303677,1
403,294,61,0.164537000982379,1
403,295,61,0.202333604892167,1
403,296,61,0.181134527237489,1
404,268,61,0.143787187221742,1
404,269,61,0.141235858692302,1
404,293,61,0.126780603293999,1
404,294,61,0.167998269083305,1
404,295,61,0.219460395293814,1
404,296,61,0.222901383631042,1
405,268,61,0.131231787665174,1
405,269,61,0.158839223540844,1
405,293,61,0.124523696421029,1
405,294,61,0.156890434819803,1
405,295,61,0.195202147082884,1
405,296,61,0.197443237624469,1
406,268,61,0.122892070485204,1
406,269,61,0.157482952515016,1
406,270,61,0.126986981098318,1
406,294,61,0.139625077809755,1
406,295,61,0.149490240699361,1
406,296,61,0.138291500805208,1
407,269,61,0.127219939289783,1
407,270,61,0.116832460604734,1
407,294,61,0.135330207784433,1
407,295,61,0.139801236175254,1
408,269,61,0.134034940925826,1
408,270,61,0.138832883347125,1
408,294,61,0.114059679882164,1
408,295,61,0.130244108999514,1
409,269,61,0.211876964911251,1
409,270,61,0.230183891526959,1
409,271,61,0.125399212212441,1
410,269,61,0.242704584658663,1
410,270,61,0.254137707745098,1
410,271,61,0.127862850195717,1
411,270,61,0.136377524500828,1
415,275,61,0.127709338744034,1
415,276,61,0.13057732365344,1
416,276,61,0.123644576908542,1
416,277,61,0.114676434368137,1
418,290,61,0.129149154859102,1
418,291,61,0.139488654591013,1
418,292,61,0.141020695345754,1
419,290,61,0.136694463525585,1
419,291,61,0.173941900384859,1
419,292,61,0.173605411762112,1
420,290,61,0.150551701432133,1
420,291,61,0.184820533277231,1
421,285,61,0.120133233572284,1
381,281,62,0.114296830638017,1
381,282,62,0.117696234860485,1
381,283,62,0.123464708830172,1
382,279,62,0.116485820323272,1
382,280,62,0.133632537182629,1
382,281,62,0.118758967494813,1
382,283,62,0.117261103205955,1
382,284,62,0.114793932162801,1
383,279,62,0.117130144453157,1
383,280,62,0.131664929029306,1
384,280,62,0.115574396866638,1
389,294,62,0.135379034671942,1
389,295,62,0.150091273068879,1
390,294,62,0.152995825148019,1
390,295,62,0.168483640849295,1
391,294,62,0.131101853499741,1
391,295,62,0.132574138435084,1
397,295,62,0.114432688567178,1
398,266,62,0.121705233234241,1
398,267,62,0.149433464427128,1
398,294,62,0.145432533206759,1
398,295,62,0.150248176258045,1
399,266,62,0.178166933593266,1
399,267,62,0.242449544842962,1
399,268,62,0.167854485323151,1
399,293,62,0.188941141012522,1
399,294,62,0.229611794917839,1
399,295,62,0.185025910047919,1
399,296,62,0.118505505779191,1
400,266,62,0.168359194703538,1
400,267,62,0.255777094635788,1
400,268,62,0.194294303793592,1
400,293,62,0.240847702601905,1
400,294,62,0.273892552959861,1
400,295,62,0.202290454454195,1
400,296,62,0.135436788424075,1
401,267,62,0.158528420263408,1
401,268,62,0.14397549931322,1
401,293,62,0.184372800375805,1
401,294,62,0.221564285343483,1
401,295,62,0.198990034792632,1
401,296,62,0.154949666144685,1
402,293,62,0.115841555077718,1
402,294,62,0.168297472147476,1
402,295,62,0.194720273046173,1
402,296,62,0.157344833427533,1
403,268,62,0.116310969189928,1
403,269,62,0.115469194120348,1
403,294,62,0.160911681134468,1
403,295,62,0.199293642404783,1
403,296,62,0.176760340017914,1
404,268,62,0.142749562866278,1
404,269,62,0.155089328001648,1
404,293,62,0.115339978343756,1
404,294,62,0.151133831931305,1
404,295,62,0.184242795549174,1
404,296,62,0.199485935077057,1
405,268,62,0.143642649742148,1
405,269,62,0.175525936004132,1
405,270,62,0.136729417264641,1
405,293,62,0.125356556402851,1
405,294,62,0.138553324095873,1
405,295,62,0.151672176041727,1
405,296,62,0.17270883893383,1
406,268,62,0.120231982595864,1
406,269,62,0.163853459887852,1
406,270,62,0.158522202078023,1
406,293,62,0.117645135037788,1
406,294,62,0.123838094374907,1
406,295,62,0.120078376929251,1
407,269,62,0.136280907090041,1
407,270,62,0.15423564652028,1
408,269,62,0.140540540731517,1
408,270,62,0.171323961899859,1
408,271,62,0.115862494345927,1
409,269,62,0.196366996924542,1
409,270,62,0.256703769134228,1
409,271,62,0.163989635792403,1
410,269,62,0.212923551461938,1
410,270,62,0.272283738813979,1
410,271,62,0.163576550431509,1
411,270,62,0.140276114753408,1
415,276,62,0.123576636167095,1
416,276,62,0.125187511264573,1
416,277,62,0.117531358732862,1
418,278,62,0.120025510576615,1
418,290,62,0.149562162021604,1
418,291,62,0.160235123721633,1
418,292,62,0.136855205973151,1
419,290,62,0.152903412078486,1
419,291,62,0.165350770663996,1
420,290,62,0.127451684464024,1
421,285,62,0.119124921836939,1
387,291,63,0.118169994636344,1
389,294,63,0.157938034180988,1
389,295,63,0.180076163820544,1
390,294,63,0.139350288189339,1
390,295,63,0.171191189509657,1
398,267,63,0.135584081690374,1
398,268,63,0.113963769083352,1
398,295,63,0.127350132546274,1
399,266,63,0.142306976455406,1
399,267,63,0.215786743186777,1
399,268,63,0.17372355728442,1
399,293,63,0.132171711138155,1
399,294,63,0.177156678674988,1
399,295,63,0.184090485337849,1
399,296,63,0.155324735781295,1
400,266,63,0.143806878142127,1
400,267,63,0.242944408763157,1
400,268,63,0.221076110683323,1
400,269,63,0.134694421882586,1
400,293,63,0.175946134592246,1
400,294,63,0.215757913418175,1
400,295,63,0.197589930270588,1
400,296,63,0.156425331040644,1
401,267,63,0.16082019843737,1
401,268,63,0.179329357400474,1
401,269,63,0.146412639347415,1
401,293,63,0.156996426616132,1
401,294,63,0.189331932765588,1
401,295,63,0.174410525447029,1
401,296,63,0.136035430089743,1
402,268,63,0.118693900308733,1
402,269,63,0.128557414437063,1
402,293,63,0.11387324031242,1
402,294,63,0.156156064770503,1
402,295,63,0.172054009839242,1
402,296,63,0.138425486212634,1
403,269,63,0.125663649967416,1
403,270,63,0.115517008197358,1
403,294,63,0.151220486113237,1
403,295,63,0.184068627474072,1
403,296,63,0.161123099437546,1
404,268,63,0.141373129845415,1
404,269,63,0.151290275822687,1
404,270,63,0.130508487870158,1
404,294,63,0.148785948766486,1
404,295,63,0.166453791957795,1
404,296,63,0.167001957974677,1
405,267,63,0.130700545005106,1
405,268,63,0.167037830309301,1
405,269,63,0.173953465267525,1
405,270,63,0.152299470823002,1
405,293,63,0.125824604398575,1
405,294,63,0.140125688840684,1
405,295,63,0.132572101037222,1
406,268,63,0.12895210433286,1
406,269,63,0.157036903705464,1
406,270,63,0.174362817361814,1
406,271,63,0.116544445563508,1
406,293,63,0.123934393810305,1
406,294,63,0.124637802478211,1
407,269,63,0.140515703320577,1
407,270,63,0.184388004310145,1
407,271,63,0.12899271096772,1
408,269,63,0.153568993451968,1
408,270,63,0.203797304492008,1
408,271,63,0.141389664565642,1
409,269,63,0.190924683265893,1
409,270,63,0.272426450879303,1
409,271,63,0.191774395943331,1
410,270,63,0.262274485965697,1
410,271,63,0.187669792969286,1
418,278,63,0.132851483635479,1
418,290,63,0.151773303992292,1
418,291,63,0.164004545305086,1
418,292,63,0.120814537062222,1
419,289,63,0.120458180866097,1
419,290,63,0.174769955405247,1
419,291,63,0.167186878328672,1
420,285,63,0.11992278097224,1
420,286,63,0.116022377082256,1
420,289,63,0.122565497983848,1
420,290,63,0.137242982848455,1
387,291,64,0.147630343764842,1
388,291,64,0.12207369604888,1
389,293,64,0.118964426703564,1
389,294,64,0.172152900185217,1
389,295,64,0.189805127251866,1
390,294,64,0.13486851929649,1
390,295,64,0.167641512473727,1
390,296,64,0.116183673042536,1
398,267,64,0.129918078234005,1
398,268,64,0.126152872768672,1
398,296,64,0.121801850645028,1
399,267,64,0.178160597639219,1
399,268,64,0.173882521425182,1
399,269,64,0.117509418431022,1
399,294,64,0.128793446390621,1
399,295,64,0.175352168342483,1
399,296,64,0.198029819779087,1
400,267,64,0.198535165110252,1
400,268,64,0.224849677723699,1
400,269,64,0.162035453266615,1
400,293,64,0.115257716932938,1
400,294,64,0.158481889864819,1
400,295,64,0.18751761230349,1
400,296,64,0.194219273378658,1
401,267,64,0.153855465723713,1
401,268,64,0.218063588294323,1
401,269,64,0.194215787426245,1
401,270,64,0.133737410176663,1
401,293,64,0.125252825764844,1
401,294,64,0.154826374131821,1
401,295,64,0.152684786333258,1
401,296,64,0.137837384842269,1
402,268,64,0.167799852440577,1
402,269,64,0.183190273457892,1
402,270,64,0.147094602341863,1
402,294,64,0.143442843429201,1
402,295,64,0.143282477841355,1
402,296,64,0.121540027354363,1
403,268,64,0.119881726816461,1
403,269,64,0.149150690091388,1
403,270,64,0.146450902385889,1
403,294,64,0.147520147627258,1
403,295,64,0.159894277658371,1
403,296,64,0.138771278559725,1
404,268,64,0.135375077644879,1
404,269,64,0.140456241922836,1
404,270,64,0.145487872701309,1
404,294,64,0.160517697850647,1
404,295,64,0.163133587160917,1
404,296,64,0.144804343383648,1
405,268,64,0.188481772567232,1
405,269,64,0.161219434203543,1
405,270,64,0.155325995905984,1
405,271,64,0.125954538564008,1
405,293,64,0.121155065150095,1
405,294,64,0.1492119415728,1
405,295,64,0.134827182495921,1
406,268,64,0.154565787412113,1
406,269,64,0.154033838140069,1
406,270,64,0.17267880792487,1
406,271,64,0.141303139929239,1
406,293,64,0.116128121564394,1
406,294,64,0.123804400760541,1
407,269,64,0.144966039757381,1
407,270,64,0.190364551952892,1
407,271,64,0.148618328629025,1
408,269,64,0.160758511211906,1
408,270,64,0.214962409656126,1
408,271,64,0.155643582658385,1
409,269,64,0.183726803930911,1
409,270,64,0.263802675685171,1
409,271,64,0.196765796946664,1
410,270,64,0.226430651357745,1
410,271,64,0.187481716415133,1
418,278,64,0.123735930060112,1
418,290,64,0.137589682014247,1
418,291,64,0.148541896767005,1
419,289,64,0.132730158359281,1
419,290,64,0.190169279733455,1
420,285,64,0.120094358136764,1
420,286,64,0.123064589799029,1
420,287,64,0.116821413904183,1
387,290,65,0.123111497057338,1
387,291,65,0.15148200320538,1
388,291,65,0.141578612607898,1
388,292,65,0.116931963347754,1
389,293,65,0.13063382905775,1
389,294,65,0.166764147714313,1
389,295,65,0.173553428674446,1
390,294,65,0.144284312300258,1
390,295,65,0.169258535095391,1
390,296,65,0.139234462709684,1
391,295,65,0.120280149978863,1
391,296,65,0.114485849341471,1
397,268,65,0.125964266255538,1
397,269,65,0.121015968582713,1
398,267,65,0.130876173411623,1
398,268,65,0.15507213377691,1
398,269,65,0.131259333755353,1
398,296,65,0.138781112243051,1
399,267,65,0.142556799119354,1
399,268,65,0.166317274524123,1
399,269,65,0.136889217562907,1
399,295,65,0.161616868109179,1
399,296,65,0.223436100466656,1
399,297,65,0.196916823479567,1
400,267,65,0.142258337997758,1
400,268,65,0.187229279286876,1
400,269,65,0.165690686354823,1
400,270,65,0.129521221394816,1
400,294,65,0.115425914136847,1
400,295,65,0.173016792209631,1
400,296,65,0.229089679329122,1
401,267,65,0.129738869660145,1
401,268,65,0.216850900821922,1
401,269,65,0.217359637890569,1
401,270,65,0.164853056742166,1
401,294,65,0.127592688883741,1
401,295,65,0.139498346951944,1
402,268,65,0.219924380270678,1
402,269,65,0.247012703658526,1
402,270,65,0.182630318797885,1
402,293,65,0.114602546309229,1
402,294,65,0.144663056319141,1
402,295,65,0.124045190568068,1
403,268,65,0.153587365363332,1
403,269,65,0.191708245285556,1
403,270,65,0.168290194044128,1
403,293,65,0.119263559106537,1
403,294,65,0.162891360575706,1
403,295,65,0.135482376673363,1
404,268,65,0.125936649504161,1
404,269,65,0.131520874401229,1
404,270,65,0.146336136824197,1
404,271,65,0.128027090372563,1
404,293,65,0.115922473925783,1
404,294,65,0.171222256882848,1
404,295,65,0.151205564823688,1
405,269,65,0.134586534010789,1
405,270,65,0.140123357021165,1
405,271,65,0.147533314163736,1
405,294,65,0.143127305851529,1
405,295,65,0.133441292651452,1
406,268,65,0.190334214745409,1
406,269,65,0.151583578676862,1
406,270,65,0.145768209225733,1
406,271,65,0.146020611023392,1
407,269,65,0.155274189471312,1
407,270,65,0.165318184075058,1
407,271,65,0.141433356739462,1
408,269,65,0.160823790381579,1
408,270,65,0.19655820612512,1
408,271,65,0.150175925183547,1
409,270,65,0.231616877059597,1
409,271,65,0.181469025569838,1
410,271,65,0.167428527847437,1
419,289,65,0.136703272621546,1
420,286,65,0.116395915726252,1
420,287,65,0.129914344967401,1
387,290,66,0.12640877229561,1
387,291,66,0.132818119773368,1
388,290,66,0.118982563077602,1
388,291,66,0.140623461646845,1
389,293,66,0.119891160086335,1
389,294,66,0.138292325185846,1
389,295,66,0.137546637568071,1
390,293,66,0.117513245912556,1
390,294,66,0.148046679540823,1
390,295,66,0.160355765939588,1
390,296,66,0.155809848456227,1
391,294,66,0.126608131087639,1
391,295,66,0.13192776513047,1
391,296,66,0.132582594225058,1
393,296,66,0.116001991326762,1
397,268,66,0.14705003867994,1
397,269,66,0.131544840324065,1
398,267,66,0.122805581179399,1
398,268,66,0.173152555923863,1
398,269,66,0.153530106239582,1
398,296,66,0.141771235032427,1
399,268,66,0.139832880614892,1
399,269,66,0.140620352554153,1
399,270,66,0.114350462486959,1
399,295,66,0.132677303783511,1
399,296,66,0.205699409715199,1
399,297,66,0.199614397134208,1
400,268,66,0.124520622658936,1
400,269,66,0.142253886342312,1
400,270,66,0.134061733296564,1
400,295,66,0.14211831105794,1
400,296,66,0.22219286380318,1
401,268,66,0.165196340616744,1
401,269,66,0.196981101615607,1
401,270,66,0.166129327515499,1
401,295,66,0.114397746604989,1
402,268,66,0.219029267773811,1
402,269,66,0.268817783520282,1
402,270,66,0.19363952180647,1
402,294,66,0.135941533135061,1
403,268,66,0.167073914627518,1
403,269,66,0.213714556461076,1
403,270,66,0.168506629292232,1
403,293,66,0.12317045204983,1
403,294,66,0.168339503783153,1
404,269,66,0.120437276928488,1
404,270,66,0.134901612290677,1
404,271,66,0.133654548145666,1
404,294,66,0.152327429103501,1
404,295,66,0.1166563493467,1
405,270,66,0.117923881685268,1
405,271,66,0.15171799982834,1
406,269,66,0.137113861286793,1
406,270,66,0.114005647619768,1
406,271,66,0.136095810083051,1
406,272,66,0.114897097511228,1
407,269,66,0.164002661006485,1
407,270,66,0.135726711317634,1
407,271,66,0.119950173963158,1
408,269,66,0.158502687810633,1
408,270,66,0.168920703909891,1
408,271,66,0.130769051036133,1
409,270,66,0.182461744734257,1
409,271,66,0.149523804768199,1
410,271,66,0.132902183044723,1
410,295,66,0.119770117454927,1
411,294,66,0.141259565524081,1
411,295,66,0.139245273872909,1
412,294,66,0.13435415288577,1
386,287,67,0.114494411123241,1
386,288,67,0.114345115789678,1
388,290,67,0.122155592376844,1
388,291,67,0.122024186103128,1
390,293,67,0.141306307906263,1
390,294,67,0.169857200314791,1
390,295,67,0.164511127207209,1
391,293,67,0.145743630905851,1
391,294,67,0.176977611423523,1
391,295,67,0.1557923362561,1
397,268,67,0.159781090196758,1
397,269,67,0.135158983925897,1
397,296,67,0.118763454480857,1
398,267,67,0.125745440303583,1
398,268,67,0.188681319789121,1
398,269,67,0.172033847844207,1
398,270,67,0.118234944053761,1
398,296,67,0.146789758158754,1
399,268,67,0.136049397453125,1
399,269,67,0.153823856614675,1
399,270,67,0.127137901639425,1
399,295,67,0.121877022382358,1
399,296,67,0.181890849365495,1
399,297,67,0.178059775887177,1
400,269,67,0.134689817127879,1
400,270,67,0.138858074064052,1
400,295,67,0.128200964026007,1
400,296,67,0.201797027311683,1
400,297,67,0.214971477843145,1
401,268,67,0.127080654292541,1
401,269,67,0.176516323349032,1
401,270,67,0.168720367637963,1
401,296,67,0.149357538970357,1
402,268,67,0.190665097579816,1
402,269,67,0.256526786388091,1
402,270,67,0.204958809703648,1
402,271,67,0.116548838334623,1
402,294,67,0.139221425718735,1
403,268,67,0.172068377616078,1
403,269,67,0.218619315059343,1
403,270,67,0.177212642343449,1
403,271,67,0.116188054036785,1
403,293,67,0.125951241041456,1
403,294,67,0.178023361816705,1
403,295,67,0.117231802362703,1
404,269,67,0.125706482429999,1
404,270,67,0.136031261079087,1
404,271,67,0.134009008266324,1
404,294,67,0.140176482464859,1
405,271,67,0.143968845383784,1
405,272,67,0.122087840065257,1
406,271,67,0.125058177719318,1
406,272,67,0.12255195458765,1
407,270,67,0.13512683308101,1
408,270,67,0.171111153926563,1
408,271,67,0.120786908533979,1
409,271,67,0.126043265474402,1
410,295,67,0.131460353085525,1
411,294,67,0.167695815604046,1
411,295,67,0.194775612540723,1
412,294,67,0.163113990455462,1
386,287,68,0.129389296938985,1
386,288,68,0.119038220547541,1
390,292,68,0.128006940154394,1
390,293,68,0.155030031480035,1
390,294,68,0.177161412975224,1
391,293,68,0.168875728057649,1
391,294,68,0.200217843761309,1
391,295,68,0.170996058612615,1
392,294,68,0.116714103098833,1
397,268,68,0.151895583194657,1
397,269,68,0.127473130137481,1
397,271,68,0.114269437647099,1
398,268,68,0.176144068383457,1
398,269,68,0.164550037973328,1
398,270,68,0.119250816537245,1
398,296,68,0.144972670133085,1
399,268,68,0.128409226128928,1
399,269,68,0.153276797623221,1
399,270,68,0.131438978073265,1
399,296,68,0.158138971073096,1
400,269,68,0.132158874353933,1
400,270,68,0.142774376723486,1
400,296,68,0.172492603892452,1
400,297,68,0.189555681447639,1
401,269,68,0.155645514064452,1
401,270,68,0.167310829846046,1
401,296,68,0.142895172040702,1
402,268,68,0.148027601017484,1
402,269,68,0.212891895245434,1
402,270,68,0.200455194723889,1
402,271,68,0.125183719113637,1
402,294,68,0.119997469858053,1
403,269,68,0.191306854352857,1
403,270,68,0.173348864507531,1
403,271,68,0.122160821305463,1
403,294,68,0.151768428369661,1
403,295,68,0.116049887841836,1
404,269,68,0.12518355423751,1
404,270,68,0.129928277000185,1
404,271,68,0.124976481598081,1
404,294,68,0.113917321122827,1
405,271,68,0.1205427858733,1
411,294,68,0.163360362497596,1
386,287,69,0.128726377137277,1
386,288,69,0.115759682303487,1
389,290,69,0.124732512036664,1
389,291,69,0.127762617286989,1
390,291,69,0.131683571808594,1
390,292,69,0.151511080288173,1
390,293,69,0.16713469503428,1
391,292,69,0.125270526394831,1
391,293,69,0.171931553983883,1
391,294,69,0.189588703780628,1
392,294,69,0.125301581991155,1
397,268,69,0.137702857698994,1
397,269,69,0.117185566385771,1
397,271,69,0.130215196792848,1
398,269,69,0.137216249362047,1
398,270,69,0.113996956292469,1
399,269,69,0.135588733552546,1
399,270,69,0.121167878380585,1
400,269,69,0.124746644276174,1
400,270,69,0.132356607938418,1
400,296,69,0.141124637967354,1
401,269,69,0.132391078825958,1
401,270,69,0.148093327708074,1
402,269,69,0.154838256989876,1
402,270,69,0.16774286418475,1
402,271,69,0.126357001191536,1
403,270,69,0.145491158446995,1
403,271,69,0.120535590208016,1
417,280,69,0.119013394913468,1
418,280,69,0.126322907163717,1
386,287,70,0.115290150422615,1
387,288,70,0.114606738873617,1
388,288,70,0.116231593111343,1
388,289,70,0.115743347789986,1
389,289,70,0.118898311376387,1
389,290,70,0.137506713991454,1
389,291,70,0.138107051525863,1
390,290,70,0.120461195743859,1
390,291,70,0.148826743831207,1
390,292,70,0.156902011479335,1
391,292,70,0.129484936869873,1
391,293,70,0.153410959683641,1
396,269,70,0.116314643572201,1
397,271,70,0.130894651314783,1
397,272,70,0.114810478659894,1
401,270,70,0.115357325667755,1
402,270,70,0.122686151978669,1
402,271,70,0.113956903170323,1
417,280,70,0.127581524414527,1
