x,y,z,signal,mito.p
878,843,21,0.126478632666257,1
878,844,21,0.114279589305814,1
879,842,21,0.135111358278746,1
879,843,21,0.123777054877088,1
880,842,21,0.116374387614731,1
878,842,22,0.130060860960527,1
878,843,22,0.124171297251967,1
879,841,22,0.12731196372273,1
879,842,22,0.132903525607477,1
879,843,22,0.122182891152832,1
880,841,22,0.128220902260584,1
880,842,22,0.115803468692237,1
891,849,22,0.136206830601273,1
891,850,22,0.12895295226723,1
892,849,22,0.139955666222506,1
892,850,22,0.125321225804075,1
873,845,23,0.150249966341716,1
874,844,23,0.133989388007137,1
874,845,23,0.132624331439079,1
876,841,23,0.114181075819559,1
877,840,23,0.11450539893946,1
877,841,23,0.11999061572189,1
877,842,23,0.123249474822426,1
878,839,23,0.129832825499158,1
878,840,23,0.117273139163272,1
878,841,23,0.122797726009605,1
878,842,23,0.129202327410261,1
878,843,23,0.123303083117636,1
879,839,23,0.140635415166098,1
879,840,23,0.128115946828485,1
879,841,23,0.129614682605446,1
879,842,23,0.128448749292093,1
879,843,23,0.122013033410781,1
880,840,23,0.138323486773967,1
880,841,23,0.131459988002671,1
880,842,23,0.116542690810436,1
881,841,23,0.119295191769308,1
883,841,23,0.114405507559853,1
891,848,23,0.113832527685764,1
891,849,23,0.152955548265414,1
891,850,23,0.127467653894671,1
892,848,23,0.118872944006465,1
892,849,23,0.159538368983164,1
892,850,23,0.131138456000073,1
897,855,23,0.116981708830831,1
871,846,24,0.163773306536095,1
871,851,24,0.131963802341222,1
871,852,24,0.122545559749271,1
872,844,24,0.177045010429122,1
872,845,24,0.191495331320463,1
872,846,24,0.142335782670275,1
873,843,24,0.117858331647671,1
873,844,24,0.157872637242653,1
873,845,24,0.159327044895016,1
874,844,24,0.141764227797003,1
874,845,24,0.134442432275246,1
875,840,24,0.114207126247724,1
876,839,24,0.11632928221696,1
876,840,24,0.116518524680873,1
876,841,24,0.118765079688401,1
877,838,24,0.129956883008328,1
877,839,24,0.121922622408512,1
877,840,24,0.114543132018953,1
877,841,24,0.116854919088689,1
878,839,24,0.129137731298831,1
878,840,24,0.116072475871321,1
878,841,24,0.116132879418362,1
879,840,24,0.123780340622774,1
879,841,24,0.11724323769984,1
880,840,24,0.129378332676498,1
880,841,24,0.115494773473862,1
891,849,24,0.131389727218571,1
892,849,24,0.137766935628309,1
893,866,24,0.142418786023667,1
897,855,24,0.125039994237815,1
870,846,25,0.15886350743907,1
870,849,25,0.170612438971101,1
870,850,25,0.141282389090891,1
870,851,25,0.137502085683014,1
870,852,25,0.145305378381762,1
871,845,25,0.200151704880399,1
871,846,25,0.157658651582731,1
871,847,25,0.128633092579642,1
871,848,25,0.126276965608441,1
871,849,25,0.132497353267077,1
871,850,25,0.139774961986631,1
871,851,25,0.145196654352461,1
871,852,25,0.118902963238559,1
872,842,25,0.154457086936544,1
872,845,25,0.186746392439666,1
872,846,25,0.131142754556258,1
872,850,25,0.11649744409027,1
872,851,25,0.124464246800155,1
872,857,25,0.117325758201716,1
873,841,25,0.131992761655353,1
873,842,25,0.116207109006391,1
873,843,25,0.136405576996257,1
873,844,25,0.170125583319963,1
873,845,25,0.154183227688562,1
873,857,25,0.138435155019833,1
873,858,25,0.118763748902514,1
874,840,25,0.118481681178749,1
874,844,25,0.137917008235044,1
874,845,25,0.124023262043094,1
875,839,25,0.116556669950685,1
875,840,25,0.119523757189659,1
875,841,25,0.116577679880091,1
876,839,25,0.122672773458599,1
876,840,25,0.126151577313384,1
876,841,25,0.12351095658397,1
877,838,25,0.130374490685865,1
877,839,25,0.127314248434784,1
877,840,25,0.124795553601747,1
877,841,25,0.119249167775969,1
878,839,25,0.135114914892356,1
878,840,25,0.128698866377697,1
878,841,25,0.117349005735711,1
879,840,25,0.125569046400759,1
880,840,25,0.119052482332581,1
881,840,25,0.11380087146926,1
893,866,25,0.134024176870065,1
893,867,25,0.131675186679818,1
894,865,25,0.1334553071223,1
894,866,25,0.129194660670326,1
895,865,25,0.117763598535485,1
907,857,25,0.172498186127059,1
907,858,25,0.196754691361782,1
869,850,26,0.142220310496608,1
870,850,26,0.13666082879555,1
870,851,26,0.114592147336323,1
870,852,26,0.120208075557359,1
871,846,26,0.160745886411277,1
871,849,26,0.177935659493676,1
871,850,26,0.153495176054258,1
871,851,26,0.134358051028502,1
872,841,26,0.174608494568839,1
872,846,26,0.12136706051962,1
872,849,26,0.120470381699541,1
872,850,26,0.139386290069492,1
872,851,26,0.128951892349267,1
872,856,26,0.12152750854553,1
872,857,26,0.169170597235037,1
872,858,26,0.134957481744209,1
873,841,26,0.138066786420124,1
873,842,26,0.137634481213496,1
873,845,26,0.135893872157312,1
873,856,26,0.155725726300541,1
873,857,26,0.231144883813677,1
873,858,26,0.171201670920628,1
874,840,26,0.117446612403264,1
874,844,26,0.119362296353251,1
874,856,26,0.119950786360203,1
874,857,26,0.175475554570277,1
874,858,26,0.131224921752145,1
875,840,26,0.118582385162128,1
876,840,26,0.126569809164833,1
876,841,26,0.116632124332805,1
877,840,26,0.126659348678998,1
878,839,26,0.129764672774118,1
878,840,26,0.129468037066791,1
879,840,26,0.115131775125167,1
893,866,26,0.116409129370195,1
893,867,26,0.116922306317422,1
894,864,26,0.14440033798664,1
894,865,26,0.150810886704757,1
894,866,26,0.116112057918817,1
895,864,26,0.131434962161871,1
895,865,26,0.128129925968734,1
907,859,26,0.16104253389547,1
908,860,26,0.116775813878029,1
869,850,27,0.124489720161873,1
871,850,27,0.137508504075125,1
872,849,27,0.1351511994173,1
872,850,27,0.13591499985538,1
872,856,27,0.133285908678034,1
872,857,27,0.187116327362588,1
872,858,27,0.134149011652408,1
873,841,27,0.139273491244465,1
873,856,27,0.187605079089194,1
873,857,27,0.289123055910249,1
873,858,27,0.191520439599327,1
874,856,27,0.140686774079852,1
874,857,27,0.21919821869716,1
874,858,27,0.150891711337891,1
878,840,27,0.120879521810238,1
889,834,27,0.161913185841116,1
894,864,27,0.151114906507227,1
894,865,27,0.137460595783185,1
895,864,27,0.128752922193825,1
872,845,28,0.116042209325036,1
872,849,28,0.129013544244132,1
872,856,28,0.114862120218439,1
872,857,28,0.158460079108508,1
873,841,28,0.130710472903362,1
873,844,28,0.128754830046159,1
873,856,28,0.166801763025143,1
873,857,28,0.262076069322969,1
873,858,28,0.163544246487361,1
874,856,28,0.125089409968637,1
874,857,28,0.201293919585108,1
874,858,28,0.133621726019403,1
889,834,28,0.15779939691139,1
889,835,28,0.159470463572315,1
890,834,28,0.186476655094875,1
890,835,28,0.177522727232044,1
894,864,28,0.125646114213556,1
905,866,28,0.145792964198609,1
906,865,28,0.144542838068372,1
907,865,28,0.166204946773746,1
871,845,29,0.122003659025239,1
871,846,29,0.122543345698415,1
871,849,29,0.15895973621327,1
872,848,29,0.117256604443044,1
872,857,29,0.120373976272347,1
873,842,29,0.145646730850274,1
873,856,29,0.129647740269035,1
873,857,29,0.193733607191011,1
873,858,29,0.12382511626829,1
874,857,29,0.156056244052094,1
888,836,29,0.141361105664965,1
889,833,29,0.151305303104033,1
889,834,29,0.155786035632652,1
889,835,29,0.155198181576478,1
889,836,29,0.140717841453043,1
890,836,29,0.174345175616159,1
890,837,29,0.142404418246832,1
905,866,29,0.139937706501461,1
906,865,29,0.142476893081788,1
906,866,29,0.182253918375388,1
907,865,29,0.171634659185499,1
907,866,29,0.201996386103712,1
908,865,29,0.187484271995111,1
868,849,30,0.160687696915092,1
868,850,30,0.114378679858516,1
869,849,30,0.119580874991014,1
870,849,30,0.118018461698192,1
871,847,30,0.150730438931343,1
871,848,30,0.169693054352876,1
871,849,30,0.119038467861733,1
873,842,30,0.11710907563942,1
873,843,30,0.120989988815746,1
873,857,30,0.119012817847021,1
887,836,30,0.129575112334817,1
888,833,30,0.141220136575847,1
888,835,30,0.145213412833148,1
888,836,30,0.125798141780091,1
889,833,30,0.15060406137952,1
889,834,30,0.155317975860062,1
889,835,30,0.14373940847533,1
889,836,30,0.124008882489392,1
890,836,30,0.158603851091796,1
890,837,30,0.121366507006906,1
905,866,30,0.125561250115296,1
906,865,30,0.134239198894218,1
906,866,30,0.155031962886101,1
906,867,30,0.114796028444995,1
907,857,30,0.124782869916787,1
907,865,30,0.161510558337461,1
907,866,30,0.173022409774837,1
908,865,30,0.185215152511831,1
909,867,30,0.195259559305896,1
909,868,30,0.165687082633748,1
867,847,31,0.149626157512854,1
867,848,31,0.161369447925948,1
868,848,31,0.15520667269705,1
868,849,31,0.123901889659431,1
868,855,31,0.115567578061074,1
869,847,31,0.170110179178896,1
869,848,31,0.141572900827763,1
869,855,31,0.134121347793566,1
869,856,31,0.143773219858359,1
870,846,31,0.14183525407741,1
870,847,31,0.142675368608848,1
870,848,31,0.126873675868042,1
870,855,31,0.121346462780533,1
870,856,31,0.119831569143065,1
872,842,31,0.118006743716265,1
887,832,31,0.125062723589694,1
887,833,31,0.141908777053464,1
887,835,31,0.134917734820585,1
887,836,31,0.115982111976517,1
888,832,31,0.129174710658884,1
888,833,31,0.148673797669104,1
888,834,31,0.154689197193639,1
888,835,31,0.137207934894468,1
888,836,31,0.113869459938351,1
889,833,31,0.150619253536993,1
889,834,31,0.152960824301498,1
889,835,31,0.134762562830759,1
890,833,31,0.170116915546396,1
890,834,31,0.171504748573798,1
890,835,31,0.158950444265792,1
890,836,31,0.138545280496219,1
891,836,31,0.191549069161202,1
891,837,31,0.13019416330971,1
906,865,31,0.118892846910443,1
906,866,31,0.127845031797068,1
907,865,31,0.141363649468077,1
907,866,31,0.153708207788013,1
907,867,31,0.146395904420461,1
908,865,31,0.163793256547537,1
908,866,31,0.200953049968113,1
908,867,31,0.241888518488125,1
908,868,31,0.216556102305731,1
909,865,31,0.144900866579505,1
909,866,31,0.209059914948414,1
909,867,31,0.297974101069443,2
909,868,31,0.267705058088686,2
909,869,31,0.154397790414931,1
910,867,31,0.211328893109299,1
910,868,31,0.184754158858997,1
867,847,32,0.128642631841311,1
868,847,32,0.149234400056755,1
868,848,32,0.132473893749489,1
868,855,32,0.158724410871687,1
869,847,32,0.130181350079221,1
869,854,32,0.140734128859079,1
869,855,32,0.221943288453423,1
869,856,32,0.201479876303334,1
870,846,32,0.133477706721924,1
870,854,32,0.117482543622219,1
870,855,32,0.177539756580654,1
870,856,32,0.1470906453148,1
883,832,32,0.114831983217683,1
884,833,32,0.113956903170323,1
887,832,32,0.120358030395432,1
887,833,32,0.130979432974981,1
887,834,32,0.126876773183868,1
887,835,32,0.114324200075202,1
888,832,32,0.125437180829259,1
888,833,32,0.149639123842605,1
888,834,32,0.148944594931859,1
888,835,32,0.124986327058274,1
889,832,32,0.142652509711439,1
889,833,32,0.151011434960278,1
889,834,32,0.146407057112808,1
889,835,32,0.125283162972327,1
890,832,32,0.194067387134518,1
890,833,32,0.162038220830186,1
890,834,32,0.151793477764193,1
890,835,32,0.142181246631227,1
890,836,32,0.119100567277515,1
891,833,32,0.166541188082301,1
891,834,32,0.181947284108608,1
891,835,32,0.190971873168992,1
891,836,32,0.160573261105656,1
892,833,32,0.148072270671203,1
893,833,32,0.141947829141978,1
907,865,32,0.116956117700451,1
907,866,32,0.139378069816843,1
907,867,32,0.150901580351816,1
907,868,32,0.134154676325079,1
908,865,32,0.132157955758365,1
908,866,32,0.200954510299529,1
908,867,32,0.288128593769623,2
908,868,32,0.266651688063034,2
908,869,32,0.160455339343806,1
909,865,32,0.125264543746771,1
909,866,32,0.224195731894081,2
909,867,32,0.373541376229517,2
909,868,32,0.368403294356931,2
909,869,32,0.221916319429691,2
910,866,32,0.172805797873739,1
910,867,32,0.261368185445885,2
910,868,32,0.264593091840996,2
910,869,32,0.186583282841982,1
911,867,32,0.151867224500706,1
911,868,32,0.153085729745038,1
867,846,33,0.125408103746466,1
868,847,33,0.133377544474393,1
868,854,33,0.122839239463167,1
868,855,33,0.183854217846965,1
869,847,33,0.113925506044877,1
869,854,33,0.194110042944107,1
869,855,33,0.301322805882667,3
869,856,33,0.223506314143291,1
870,846,33,0.137235304331654,1
870,854,33,0.147676297096984,1
870,855,33,0.218105843690459,1
870,856,33,0.151593082607933,1
882,832,33,0.126795336153689,1
883,833,33,0.116355685951112,1
883,834,33,0.119080546604875,1
887,833,33,0.114433088980631,1
888,832,33,0.114246484534761,1
888,833,33,0.134599394348744,1
888,834,33,0.128709807086451,1
889,832,33,0.131565944468401,1
889,833,33,0.144222625074795,1
889,834,33,0.133974337172058,1
889,835,33,0.11926695084402,1
890,832,33,0.171901146115203,1
890,833,33,0.148848236612129,1
890,834,33,0.128853143325687,1
890,835,33,0.126016037359612,1
891,832,33,0.169886748472234,1
891,833,33,0.13213760533347,1
891,834,33,0.135196422583733,1
891,835,33,0.153247579218033,1
891,836,33,0.124000191162093,1
892,834,33,0.149239063695794,1
892,835,33,0.177379673637598,1
892,836,33,0.136606513888364,1
893,834,33,0.140100333247629,1
905,868,33,0.119666363263187,1
907,866,33,0.126206151311627,1
907,867,33,0.145621422364684,1
907,868,33,0.126874629794209,1
908,866,33,0.191218739839509,1
908,867,33,0.283374555505737,2
908,868,33,0.264056820459036,2
908,869,33,0.172793125965644,1
909,866,33,0.21259219755288,2
909,867,33,0.375523257944745,2
909,868,33,0.420855454606352,2
909,869,33,0.287840154761213,2
909,870,33,0.14655241897304,1
910,861,33,0.11457153782037,1
910,866,33,0.175899863284715,2
910,867,33,0.30553381284336,2
910,868,33,0.386271650473162,2
910,869,33,0.292257515972493,2
910,870,33,0.152965617486065,1
911,867,33,0.210769963036656,2
911,868,33,0.260148408299996,2
911,869,33,0.208694007713753,1
912,868,33,0.171761967109756,1
867,846,34,0.121325900372045,1
867,855,34,0.121276920385275,1
868,847,34,0.133345417183239,1
868,854,34,0.164092188743784,1
868,855,34,0.23168099031951,3
868,856,34,0.167240439516417,1
869,847,34,0.125987831764922,1
869,854,34,0.260435669621781,3
869,855,34,0.380837050661912,3
869,856,34,0.23401017182071,3
870,846,34,0.148030050605665,1
870,854,34,0.176011131117128,1
870,855,34,0.250103989729065,3
870,856,34,0.151522480294712,1
871,842,34,0.114857503686866,1
882,832,34,0.115196229914201,1
882,833,34,0.128916632411688,1
888,833,34,0.116249246633865,1
889,832,34,0.11848196382354,1
889,833,34,0.132054366442752,1
889,834,34,0.118350486888626,1
890,832,34,0.145764581950926,1
890,833,34,0.134747288235222,1
891,835,34,0.121723298947082,1
892,835,34,0.135393214018918,1
893,835,34,0.118966617200688,1
907,867,34,0.127844925805271,1
908,866,34,0.163659424239372,1
908,867,34,0.229042501202889,2
908,868,34,0.211431116308425,2
908,869,34,0.15485788902593,1
909,866,34,0.177646384327761,2
909,867,34,0.306034518089219,2
909,868,34,0.381682229245841,2
909,869,34,0.289293184520223,2
909,870,34,0.149626086851656,1
910,866,34,0.161814589916798,2
910,867,34,0.312982515875922,2
910,868,34,0.462066478243087,2
910,869,34,0.353749528100969,2
910,870,34,0.16739483423307,2
911,866,34,0.1440280712442,1
911,867,34,0.256177555196052,2
911,868,34,0.358044386349425,2
911,869,34,0.265473129949051,2
911,870,34,0.142092401952171,1
912,867,34,0.171458159290878,1
912,868,34,0.206873021545353,2
867,846,35,0.121741682635312,1
867,854,35,0.127928930192296,1
867,855,35,0.155911965663557,1
868,847,35,0.137098056732274,1
868,853,35,0.11442512781904,1
868,854,35,0.220255522196142,1
868,855,35,0.286758496702807,3
868,856,35,0.176018185460017,1
869,853,35,0.126208954205797,1
869,854,35,0.292370149921392,3
869,855,35,0.398739394814165,3
869,856,35,0.22141625013461,3
870,854,35,0.17514813413455,1
870,855,35,0.237102894668933,3
870,856,35,0.140427388600502,1
879,866,35,0.135489725437909,1
880,866,35,0.141026383572157,1
880,867,35,0.129031315535317,1
881,836,35,0.118047809648909,1
881,866,35,0.126033361129878,1
881,867,35,0.119418507335904,1
882,834,35,0.11669321093809,1
884,868,35,0.121998488980952,1
885,868,35,0.135711436722097,1
885,869,35,0.120705424396334,1
886,868,35,0.133833568289666,1
886,869,35,0.122165685151228,1
887,868,35,0.118168004345946,1
889,833,35,0.117500491566398,1
890,833,35,0.120112364965274,1
908,866,35,0.133547272670915,1
908,867,35,0.173550060490696,1
908,868,35,0.16021750552971,1
908,869,35,0.132335280033623,1
909,866,35,0.14292719334006,1
909,867,35,0.226141293753767,2
909,868,35,0.299092314520716,2
909,869,35,0.251642707966975,2
909,870,35,0.15066641988636,1
910,866,35,0.140976249452493,1
910,867,35,0.281430453977467,2
910,868,35,0.449257864285089,2
910,869,35,0.353439419658642,2
910,870,35,0.177129509444529,2
911,866,35,0.135774136758059,1
911,867,35,0.26798492353846,2
911,868,35,0.400640557888056,2
911,869,35,0.286221518708871,2
911,870,35,0.151085758763237,1
912,865,35,0.11915664871464,1
912,867,35,0.175890147370051,1
912,868,35,0.226523264634005,2
867,844,36,0.125051464905551,1
867,846,36,0.114508531585885,1
867,854,36,0.15192985387547,1
867,855,36,0.17632638605001,1
868,847,36,0.129271045424881,1
868,853,36,0.131007815222664,1
868,854,36,0.266387156093129,1
868,855,36,0.312874875318317,1
868,856,36,0.168365448219522,1
869,853,36,0.125192057134948,1
869,854,36,0.275703811436732,1
869,855,36,0.344042658070748,3
869,856,36,0.181136493974154,1
870,843,36,0.162059548734981,1
870,854,36,0.147754589703872,1
870,855,36,0.187666719207193,1
870,856,36,0.117945574672916,1
871,839,36,0.150891299147572,1
871,840,36,0.118280602964247,1
879,865,36,0.11545681663391,1
879,866,36,0.162909096536292,1
880,865,36,0.13276963441498,1
880,866,36,0.178460507315365,1
880,867,36,0.152648760899372,1
881,832,36,0.128404609597355,1
881,866,36,0.154516748541011,1
881,867,36,0.143690569810955,1
882,867,36,0.121366742544231,1
884,867,36,0.118415389198579,1
884,868,36,0.130215679644365,1
885,867,36,0.137621726867338,1
885,868,36,0.171529374001145,1
885,869,36,0.134822613071813,1
886,867,36,0.142589444592624,1
886,868,36,0.201232326574574,1
886,869,36,0.155881616679208,1
887,867,36,0.118000690407008,1
887,868,36,0.183017824805265,1
887,869,36,0.156283867323144,1
888,868,36,0.125174085637038,1
888,869,36,0.125537095762599,1
908,867,36,0.128541916081066,1
908,868,36,0.123935913026053,1
908,869,36,0.11561427333579,1
909,866,36,0.114580488238726,1
909,867,36,0.164614210117572,1
909,868,36,0.214869136875356,2
909,869,36,0.20222417425089,1
910,866,36,0.121157302754684,1
910,867,36,0.226964685135117,2
910,868,36,0.357755711803689,2
910,869,36,0.300638452184368,2
910,870,36,0.196661548126541,1
911,866,36,0.123032073871289,1
911,867,36,0.238822646894973,2
911,868,36,0.358014166910605,2
911,869,36,0.261523710741699,2
911,870,36,0.161863499242371,1
912,865,36,0.117243131708044,1
912,868,36,0.21486758232901,2
866,855,37,0.13291403057218,1
867,845,37,0.119776100102986,1
867,854,37,0.176186064688536,1
867,855,37,0.19181648646334,1
867,856,37,0.123213637818401,1
868,843,37,0.12939781161329,1
868,844,37,0.170790964486718,1
868,846,37,0.199704961235738,1
868,847,37,0.113935057083413,1
868,853,37,0.146936474358606,1
868,854,37,0.318202870936192,1
868,855,37,0.328956563054425,1
868,856,37,0.161496508536014,1
869,843,37,0.170274560678136,1
869,847,37,0.138658715272023,1
869,853,37,0.127103466082484,1
869,854,37,0.266756219527947,1
869,855,37,0.284468602827447,1
869,856,37,0.147398339499543,1
870,839,37,0.139747156805394,1
870,842,37,0.140893175437904,1
870,843,37,0.153829650832874,1
870,844,37,0.144720562757083,1
870,846,37,0.115889957998042,1
870,854,37,0.124244702459358,1
870,855,37,0.139310235067193,1
871,839,37,0.135454159301807,1
879,865,37,0.133573452644608,1
879,866,37,0.180603849867001,1
880,832,37,0.155944175392775,1
880,865,37,0.154669129413534,1
880,866,37,0.212291345727433,1
880,867,37,0.172994628147332,1
881,835,37,0.117278297430693,1
881,865,37,0.125551557754365,1
881,866,37,0.181480555121905,1
881,867,37,0.164746688086117,1
882,866,37,0.120995747703346,1
882,867,37,0.135567594077612,1
882,868,37,0.121212677579833,1
883,867,37,0.123861436123832,1
883,868,37,0.125274636521155,1
884,867,37,0.135221413093934,1
884,868,37,0.144206467214288,1
885,867,37,0.176404490227038,1
885,868,37,0.209224367108852,1
885,869,37,0.148737698945424,1
886,867,37,0.194944327926747,1
886,868,37,0.265734552826264,1
886,869,37,0.179558382118609,1
887,867,37,0.149765395402632,1
887,868,37,0.235002207926886,1
887,869,37,0.172221382662512,1
888,868,37,0.148742138824004,1
888,869,37,0.134740363437861,1
889,834,37,0.123790786703145,1
889,869,37,0.118921205604394,1
890,834,37,0.131699564792974,1
904,870,37,0.127308465993451,1
905,870,37,0.150210560947214,1
908,869,37,0.11738454831808,1
909,867,37,0.124022202125131,1
909,868,37,0.155982579753645,1
909,869,37,0.175922003793282,1
910,867,37,0.171836455788843,1
910,868,37,0.251845858909939,2
910,869,37,0.245973842732105,1
911,867,37,0.192641738589559,1
911,868,37,0.277094871325488,2
911,869,37,0.226056335440576,1
912,865,37,0.12070112584015,1
912,867,37,0.147187828015167,1
912,868,37,0.194176488023539,1
867,849,38,0.148877113488196,1
867,850,38,0.140009804476698,1
867,854,38,0.174539105272842,1
867,855,38,0.185531667569403,1
868,842,38,0.133447934804022,1
868,843,38,0.126593198021223,1
868,844,38,0.145906422528146,1
868,845,38,0.19044017121114,1
868,846,38,0.158270530446073,1
868,853,38,0.138757982477719,1
868,854,38,0.300348882596797,1
868,855,38,0.286407616749493,1
868,856,38,0.14473498941825,1
869,842,38,0.175860928964863,1
869,843,38,0.166456983488551,1
869,844,38,0.166511957900247,1
869,846,38,0.167854308670157,1
869,847,38,0.122075804107941,1
869,853,38,0.118555663452587,1
869,854,38,0.235415929238558,1
869,855,38,0.22160814239343,1
869,856,38,0.122447953081719,1
870,839,38,0.123394942674455,1
870,840,38,0.122826744208067,1
870,841,38,0.122197765334917,1
870,842,38,0.139512538075786,1
870,843,38,0.145098447064729,1
870,844,38,0.130375656595625,1
870,845,38,0.117810611785591,1
871,839,38,0.126051839033038,1
879,865,38,0.137290891140395,1
879,866,38,0.176881606409781,1
880,832,38,0.13134163049677,1
880,835,38,0.142930290655886,1
880,865,38,0.161492469070887,1
880,866,38,0.219993486921884,1
880,867,38,0.174101995104781,1
881,865,38,0.127743138350197,1
881,866,38,0.187023207681079,1
881,867,38,0.1635691192289,1
882,866,38,0.125339008872126,1
882,867,38,0.137122552614092,1
883,867,38,0.127856396473008,1
883,868,38,0.134570800117467,1
884,867,38,0.14471496874561,1
884,868,38,0.157924891198243,1
885,866,38,0.121344590258798,1
885,867,38,0.209759343035524,1
885,868,38,0.247828722721598,1
885,869,38,0.166951305672898,1
886,866,38,0.120784046755478,1
886,867,38,0.242179760390706,1
886,868,38,0.316294806618674,1
886,869,38,0.196748461399531,1
887,867,38,0.17759029111377,1
887,868,38,0.26231810747832,1
887,869,38,0.172109031358403,1
888,833,38,0.117401872088346,1
888,834,38,0.114839496858356,1
888,868,38,0.161298574744802,1
888,869,38,0.136001665814179,1
889,833,38,0.139000291500994,1
889,834,38,0.155014309363579,1
889,868,38,0.115016385389563,1
889,869,38,0.136817048926473,1
889,870,38,0.128345925472787,1
890,833,38,0.138202750341082,1
890,834,38,0.163715187701108,1
890,835,38,0.122764055948971,1
890,869,38,0.132077661084212,1
890,870,38,0.12672176607017,1
891,833,38,0.11398442570677,1
891,834,38,0.131891704365986,1
904,870,38,0.156797385799492,1
906,869,38,0.119500745192989,1
906,870,38,0.173278957029418,1
907,869,38,0.132863130956209,1
909,868,38,0.131918661612852,1
910,867,38,0.135591300909391,1
910,868,38,0.181794455715167,1
911,864,38,0.124910484039567,1
911,867,38,0.150325997790283,1
911,868,38,0.203239057477608,1
911,869,38,0.198008338775031,1
912,865,38,0.126523455419238,1
912,867,38,0.134194175934511,1
912,868,38,0.171433792954589,1
866,849,39,0.236414136422653,1
866,850,39,0.19614665175684,1
867,848,39,0.138128426538122,1
867,849,39,0.181423260667556,1
867,850,39,0.159448393724946,1
867,854,39,0.168839278656578,1
867,855,39,0.18619509377636,1
868,842,39,0.140912348176173,1
868,843,39,0.131621566607742,1
868,844,39,0.129126390176624,1
868,845,39,0.144661301566069,1
868,846,39,0.127059432379542,1
868,853,39,0.122551259752541,1
868,854,39,0.239683323834898,1
868,855,39,0.228867732507609,1
868,856,39,0.135289730695102,1
869,840,39,0.134886655670528,1
869,841,39,0.147349029760518,1
869,842,39,0.168193953493061,1
869,843,39,0.155300687420394,1
869,844,39,0.140422300994278,1
869,845,39,0.140585987658409,1
869,846,39,0.12249315269442,1
869,854,39,0.183768552921798,1
869,855,39,0.165256025774944,1
870,839,39,0.12440432610463,1
870,840,39,0.116656384677298,1
870,841,39,0.118011266032908,1
870,842,39,0.128826928021395,1
870,843,39,0.126549541178001,1
870,844,39,0.115451387498564,1
871,839,39,0.123690494910086,1
878,832,39,0.152600310871583,1
879,832,39,0.143736334713237,1
879,865,39,0.148999604674153,1
879,866,39,0.173404580861801,1
880,832,39,0.120261106786122,1
880,833,39,0.15083571233883,1
880,835,39,0.134551662709797,1
880,865,39,0.174051849208251,1
880,866,39,0.216555160156431,1
880,867,39,0.168500882181498,1
881,831,39,0.129686545043357,1
881,865,39,0.136660063299243,1
881,866,39,0.184125497961236,1
881,867,39,0.157970432340066,1
882,831,39,0.14038433237746,1
882,866,39,0.130553145747011,1
882,867,39,0.140227594064422,1
883,830,39,0.127360555072913,1
883,831,39,0.137498305308945,1
883,867,39,0.135253740591815,1
884,830,39,0.113817936148469,1
884,831,39,0.129184709218337,1
884,867,39,0.155910564216472,1
884,868,39,0.181192328097087,1
885,831,39,0.127882376239974,1
885,832,39,0.114317204616645,1
885,866,39,0.137378899661947,1
885,867,39,0.230563247942888,1
885,868,39,0.281504883772223,1
885,869,39,0.19064594839528,1
886,831,39,0.128075964367537,1
886,832,39,0.120706637413559,1
886,866,39,0.142294021902522,1
886,867,39,0.266964528738333,1
886,868,39,0.336028382812973,1
886,869,39,0.21048736535391,1
887,831,39,0.130552921986552,1
887,832,39,0.127077050571465,1
887,867,39,0.191500183389361,1
887,868,39,0.25263978457191,1
887,869,39,0.164577230757519,1
888,831,39,0.127441073507525,1
888,832,39,0.131386912547535,1
888,833,39,0.133269008874952,1
888,834,39,0.128528725990856,1
888,868,39,0.155505604893297,1
888,869,39,0.130926566622345,1
889,832,39,0.13059350506768,1
889,833,39,0.174257591061792,1
889,834,39,0.193910024647568,1
889,835,39,0.133629074783949,1
889,868,39,0.123191591524764,1
889,869,39,0.151753059559193,1
889,870,39,0.119290163047416,1
890,832,39,0.122926282281686,1
890,833,39,0.185715422013639,1
890,834,39,0.214401383301289,1
890,835,39,0.146652910972827,1
890,869,39,0.166589037489911,1
890,870,39,0.132607561181527,1
891,833,39,0.147023399408462,1
891,834,39,0.162244928386761,1
891,835,39,0.122323601150892,1
891,869,39,0.122393390860342,1
892,833,39,0.120799250689818,1
892,834,39,0.121512834570171,1
893,834,39,0.114767457767451,1
903,870,39,0.122620448841811,1
906,869,39,0.14222767103802,1
907,868,39,0.118250242203031,1
910,867,39,0.114952825642364,1
910,868,39,0.156238538164914,1
911,867,39,0.119881220411212,1
911,868,39,0.160508111481512,1
912,867,39,0.123277880623842,1
912,868,39,0.159634868625288,1
913,866,39,0.12284108843117,1
866,848,40,0.172672365979026,1
866,849,40,0.215054457642805,1
866,850,40,0.174204206527041,1
867,845,40,0.121724111550854,1
867,846,40,0.129009092588686,1
867,847,40,0.138387070074898,1
867,848,40,0.158364180086563,1
867,849,40,0.181773304463366,1
867,850,40,0.151577619582536,1
867,853,40,0.12867124962632,1
868,842,40,0.155834980288823,1
868,843,40,0.146895325987898,1
868,844,40,0.124360857691269,1
868,845,40,0.124572158225684,1
868,846,40,0.124118819535918,1
868,847,40,0.122878373989745,1
868,853,40,0.132702753591497,1
868,854,40,0.195497452004324,1
868,855,40,0.191646334299633,1
869,841,40,0.131843737189714,1
869,842,40,0.156285009679171,1
869,843,40,0.147591962957704,1
869,844,40,0.124874329060152,1
869,854,40,0.139014282418109,1
869,855,40,0.129097960821475,1
870,842,40,0.119949985533297,1
870,843,40,0.115757468252631,1
871,839,40,0.125314642535836,1
875,834,40,0.138325912808416,1
875,839,40,0.114859105340677,1
876,833,40,0.16523264869542,1
876,834,40,0.135898264928426,1
877,832,40,0.150726776325936,1
877,833,40,0.164336758925381,1
877,834,40,0.143083083718727,1
878,832,40,0.144954604420244,1
878,833,40,0.186613231412878,1
878,835,40,0.150878450586483,1
878,865,40,0.117810776661718,1
879,832,40,0.129034883925793,1
879,833,40,0.186528308430286,1
879,835,40,0.15431890896473,1
879,864,40,0.123796086292962,1
879,865,40,0.165504494099272,1
879,866,40,0.169140566226077,1
880,831,40,0.114352817860211,1
880,833,40,0.145631432701004,1
880,834,40,0.164860841250764,1
880,835,40,0.129968918965644,1
880,864,40,0.127346411056537,1
880,865,40,0.186712498618574,1
880,866,40,0.196839190377189,1
881,830,40,0.128818448677689,1
881,831,40,0.145203779356548,1
881,865,40,0.143723698135741,1
881,866,40,0.167880936164768,1
881,867,40,0.150225776658421,1
882,830,40,0.14755870508739,1
882,831,40,0.166720749962149,1
882,866,40,0.130233886679601,1
882,867,40,0.140445442536477,1
883,830,40,0.14019404177245,1
883,831,40,0.161224250941843,1
883,866,40,0.115877545181005,1
883,867,40,0.138497431088609,1
884,830,40,0.121661352630561,1
884,831,40,0.148581184392845,1
884,866,40,0.12299564802395,1
884,867,40,0.167162123355796,1
884,868,40,0.205887321393224,1
885,831,40,0.150688619279258,1
885,832,40,0.118163941327087,1
885,866,40,0.151971967949211,1
885,867,40,0.23186772431091,1
885,868,40,0.289165028661595,1
885,869,40,0.198656702370043,1
886,831,40,0.155016959158487,1
886,832,40,0.127720373667718,1
886,866,40,0.164172836723925,1
886,867,40,0.260950483553418,1
886,868,40,0.311667722973058,1
886,869,40,0.201995420400679,1
887,831,40,0.164489799302414,1
887,832,40,0.140667989978169,1
887,866,40,0.123744362296353,1
887,867,40,0.189947309358209,1
887,868,40,0.213873096634652,1
888,831,40,0.165702675204675,1
888,832,40,0.153608104424814,1
888,833,40,0.135684020177446,1
888,834,40,0.123493903681627,1
888,867,40,0.116655513189195,1
888,868,40,0.135854360771014,1
888,869,40,0.115188410075005,1
889,831,40,0.134820257698561,1
889,832,40,0.148129152935233,1
889,833,40,0.184154292399239,1
889,834,40,0.196866512706909,1
889,835,40,0.13225568019458,1
889,868,40,0.119240900415855,1
889,869,40,0.147475619295934,1
890,832,40,0.133643289461523,1
890,833,40,0.208167605345717,1
890,834,40,0.234075745412039,1
890,835,40,0.151385845092377,1
890,868,40,0.115669294854951,1
890,869,40,0.173701463883319,1
890,870,40,0.12518018605376,1
891,832,40,0.114122156157666,1
891,833,40,0.166697785072944,1
891,834,40,0.178528813139666,1
891,835,40,0.124682107049076,1
891,869,40,0.12677911940885,1
892,833,40,0.140800409062383,1
892,834,40,0.140520284521552,1
893,834,40,0.137595511563045,1
903,870,40,0.152726688423406,1
909,867,40,0.114346564344228,1
910,867,40,0.113849392158246,1
912,867,40,0.118255730222708,1
913,866,40,0.119082701771401,1
867,845,41,0.136620175053224,1
867,846,41,0.173816747627126,1
867,848,41,0.1957685907962,1
867,849,41,0.16700994269,1
867,850,41,0.126842337626928,1
867,853,41,0.187179816448589,1
868,843,41,0.161446445077548,1
868,844,41,0.123906176438749,1
868,845,41,0.122300365393763,1
868,846,41,0.143681536954534,1
868,847,41,0.162708842702427,1
868,848,41,0.138644253280258,1
868,853,41,0.151170246001777,1
868,854,41,0.173446141422828,1
869,842,41,0.148527387667774,1
869,843,41,0.14114325719291,1
869,844,41,0.116938829260783,1
870,842,41,0.117511243845292,1
870,843,41,0.115704543015664,1
871,839,41,0.135309445169219,1
871,840,41,0.11483910822177,1
874,839,41,0.114941437412692,1
875,839,41,0.113901398799645,1
876,834,41,0.122489914056199,1
877,833,41,0.156715772116319,1
877,834,41,0.126384700380977,1
877,835,41,0.140383449112491,1
877,838,41,0.124987646067295,1
878,832,41,0.155941714027727,1
878,833,41,0.173850488348958,1
878,834,41,0.155492096827699,1
878,835,41,0.134583354256899,1
878,836,41,0.130218023240751,1
878,865,41,0.124804986871621,1
879,831,41,0.121097546935287,1
879,832,41,0.136394282981514,1
879,833,41,0.177428582963171,1
879,834,41,0.190550284910659,1
879,835,41,0.145463906778472,1
879,864,41,0.143730045866654,1
879,865,41,0.18077761752865,1
879,866,41,0.163613353138568,1
880,831,41,0.128671072973326,1
880,832,41,0.119484693324279,1
880,833,41,0.149452931587053,1
880,834,41,0.172672837053677,1
880,835,41,0.13021582096676,1
880,864,41,0.144065922092355,1
880,865,41,0.187309656399092,1
880,866,41,0.167903618409183,1
881,831,41,0.161445962226031,1
881,865,41,0.13762231571065,1
881,866,41,0.143085168224055,1
882,830,41,0.155589314858665,1
882,831,41,0.19484261113287,1
882,832,41,0.116852351731845,1
882,866,41,0.119771106711693,1
882,867,41,0.131478736773755,1
883,830,41,0.145552480589605,1
883,831,41,0.186769239560208,1
883,832,41,0.115796720547871,1
883,866,41,0.113855810550357,1
883,867,41,0.129959921439823,1
884,830,41,0.123735364770532,1
884,831,41,0.170221211473984,1
884,832,41,0.120432825273042,1
884,866,41,0.130229164156231,1
884,867,41,0.168373904009495,1
884,868,41,0.207026638988833,1
885,831,41,0.179783237826088,1
885,832,41,0.13849220215999,1
885,866,41,0.16054350096462,1
885,867,41,0.219052750845131,1
885,868,41,0.263507971383911,1
885,869,41,0.185645196560138,1
886,831,41,0.188343229512563,1
886,832,41,0.151622878079568,1
886,866,41,0.175107079978771,1
886,867,41,0.233914072592038,1
886,868,41,0.255025306601292,1
886,869,41,0.17491981602839,1
887,831,41,0.199584130587923,1
887,832,41,0.167992368873309,1
887,866,41,0.147345084510321,1
887,867,41,0.183910723251274,1
887,868,41,0.17082634219296,1
888,831,41,0.2084520402196,1
888,832,41,0.191708716360206,1
888,833,41,0.144517623797711,1
888,834,41,0.120267843153622,1
888,867,41,0.13113796137169,1
888,868,41,0.120416384767745,1
889,832,41,0.17713696420087,1
889,833,41,0.182787010003459,1
889,834,41,0.181759054455193,1
889,835,41,0.123662889935575,1
889,868,41,0.114143648938589,1
889,869,41,0.134139519498204,1
890,832,41,0.145517161767694,1
890,833,41,0.20374324867588,1
890,834,41,0.225597885590853,1
890,835,41,0.142596275175054,1
890,869,41,0.154725199073792,1
890,870,41,0.11535353351682,1
891,833,41,0.175061621275013,1
891,834,41,0.185964655834274,1
891,835,41,0.121097912018141,1
891,869,41,0.116749433697609,1
892,833,41,0.161076109741174,1
892,834,41,0.158035746840337,1
893,834,41,0.155171801396058,1
893,835,41,0.115888591881556,1
903,870,41,0.16914106085446,1
903,871,41,0.166794614467324,1
904,869,41,0.122732152418276,1
910,864,41,0.116482098833534,1
910,867,41,0.125812179804672,1
911,867,41,0.117367778060527,1
912,867,41,0.122831513838901,1
913,866,41,0.115224953691006,1
868,844,42,0.137307190323298,1
868,845,42,0.13793254192164,1
868,846,42,0.181437263361538,1
868,849,42,0.132315600890105,1
868,852,42,0.124577705129692,1
868,853,42,0.166698008833403,1
869,842,42,0.152482942622448,1
869,843,42,0.150073784422485,1
869,844,42,0.128118337532336,1
869,845,42,0.116466200064085,1
869,846,42,0.122534677924848,1
869,847,42,0.126946268471661,1
870,842,42,0.119841391049525,1
870,843,42,0.124222444182129,1
870,844,42,0.115435924473167,1
871,840,42,0.123931579139269,1
871,841,42,0.114966581022155,1
872,840,42,0.117588417649886,1
874,839,42,0.116997748922676,1
876,835,42,0.125570954253093,1
877,833,42,0.151640672924485,1
877,835,42,0.122271488517697,1
877,836,42,0.16288709735012,1
877,838,42,0.115541080111991,1
878,832,42,0.194466151826041,1
878,833,42,0.16700745777122,1
878,834,42,0.132595372124949,1
878,835,42,0.115749189115651,1
878,836,42,0.114363852783896,1
879,831,42,0.161132921344006,1
879,832,42,0.170882364745753,1
879,833,42,0.172785777201099,1
879,834,42,0.168672930420672,1
879,835,42,0.12716256239737,1
879,864,42,0.151290287599553,1
879,865,42,0.180527523996778,1
880,831,42,0.152715135317607,1
880,832,42,0.146969119831875,1
880,833,42,0.157664787330052,1
880,834,42,0.172988680829871,1
880,835,42,0.123128561736547,1
880,864,42,0.145080652219812,1
880,865,42,0.170411808277516,1
880,866,42,0.140304720761551,1
881,831,42,0.173890235272581,1
881,832,42,0.130409750623444,1
881,834,42,0.115789242237797,1
881,865,42,0.120629864022418,1
881,866,42,0.12279160203915,1
882,831,42,0.214107055859749,1
882,832,42,0.136211494240312,1
883,830,42,0.145947653336919,1
883,831,42,0.210168377154425,1
883,832,42,0.143828947989496,1
884,831,42,0.197627262936628,1
884,832,42,0.160042736834429,1
884,866,42,0.132192791728758,1
884,867,42,0.166534734359591,1
884,868,42,0.194696683983057,1
885,831,42,0.211703915638444,1
885,832,42,0.181840526815972,1
885,866,42,0.162885778341099,1
885,867,42,0.212840807199603,1
885,868,42,0.236032330418543,1
885,869,42,0.167762425559606,1
886,831,42,0.223079379187677,1
886,832,42,0.193934673628648,1
886,866,42,0.177887562771875,1
886,867,42,0.213332774010698,1
886,868,42,0.207368262325268,1
887,831,42,0.239066286704135,1
887,832,42,0.215002545216336,1
887,833,42,0.129961134457047,1
887,866,42,0.172928795464945,1
887,867,42,0.184634918088127,1
887,868,42,0.146113872027295,1
888,831,42,0.261663973218841,1
888,832,42,0.254097006895308,1
888,833,42,0.161948857969014,1
888,834,42,0.12013787365759,1
888,866,42,0.141108715644172,1
888,867,42,0.154683073223184,1
888,868,42,0.117764564238519,1
889,832,42,0.22614506235097,1
889,833,42,0.18238697341038,1
889,834,42,0.162194158316319,1
889,867,42,0.114488346037117,1
890,832,42,0.166270744125534,1
890,833,42,0.190028569735395,1
890,834,42,0.201602497034821,1
890,835,42,0.127074141685499,1
890,869,42,0.115892077833969,1
891,833,42,0.183722269837401,1
891,834,42,0.189489413021201,1
891,835,42,0.116387565928075,1
892,834,42,0.17259063452719,1
893,835,42,0.115809792869418,1
893,837,42,0.122957137671284,1
902,870,42,0.116546188539715,1
903,870,42,0.164829644332044,1
903,871,42,0.150258445685423,1
904,869,42,0.125853811026897,1
904,871,42,0.183753843615841,1
911,867,42,0.13056866765674,1
912,867,42,0.129192046206017,1
913,866,42,0.114602263664439,1
868,845,43,0.162250027769851,1
868,850,43,0.130830008095889,1
868,851,43,0.117549059362849,1
869,843,43,0.180162488250221,1
869,844,43,0.158952858523375,1
869,845,43,0.139945432125727,1
869,846,43,0.146715328363998,1
869,849,43,0.121572719935097,1
870,842,43,0.126050943991203,1
870,843,43,0.138093296146072,1
870,844,43,0.130312379493216,1
870,845,43,0.122965569907525,1
871,840,43,0.129465139957692,1
871,841,43,0.123812432583329,1
871,842,43,0.122666119529163,1
871,843,43,0.119039775093888,1
871,844,43,0.114588626053311,1
871,845,43,0.119952011154294,1
872,840,43,0.126960683355962,1
872,841,43,0.126792545036385,1
872,842,43,0.121549554839166,1
873,840,43,0.118384863561236,1
873,841,43,0.121962651976926,1
873,842,43,0.118145852060513,1
874,839,43,0.119767585428681,1
874,841,43,0.115038573005595,1
874,842,43,0.114784828645183,1
876,835,43,0.115097598659284,1
876,838,43,0.139333141072066,1
877,831,43,0.256163705601332,1
877,832,43,0.23405339291988,1
877,833,43,0.142015216370711,1
877,836,43,0.134029005385231,1
877,837,43,0.13570720882711,1
878,831,43,0.241204635864477,1
878,832,43,0.236349858286613,1
878,833,43,0.156534914781183,1
878,864,43,0.116457178984531,1
879,832,43,0.217046914983933,1
879,833,43,0.172236315728928,1
879,834,43,0.142182836508172,1
879,864,43,0.151940994790951,1
879,865,43,0.168692574233592,1
880,831,43,0.173415898430276,1
880,832,43,0.194894099592153,1
880,833,43,0.179871128578978,1
880,834,43,0.163592555192755,1
880,864,43,0.138155701760378,1
880,865,43,0.146330330829132,1
881,831,43,0.180641688938291,1
881,832,43,0.175552563498743,1
881,833,43,0.147952794363008,1
881,834,43,0.125584532979889,1
882,831,43,0.215053963014422,1
882,832,43,0.181037992264766,1
882,833,43,0.12252664610206,1
883,831,43,0.213744234164048,1
883,832,43,0.198728729684081,1
883,833,43,0.12935739340829,1
884,831,43,0.206288794763986,1
884,832,43,0.228110338684773,1
884,833,43,0.151387646952915,1
884,866,43,0.130750702678502,1
885,831,43,0.213784958567571,1
885,832,43,0.236066577545624,1
885,833,43,0.147158491841317,1
885,866,43,0.164259243591665,1
885,868,43,0.204782038941103,1
886,831,43,0.221044124714564,1
886,832,43,0.228155938710927,1
886,833,43,0.137464917893102,1
886,866,43,0.174281121240577,1
886,867,43,0.195989725013941,1
887,831,43,0.236368465735302,1
887,832,43,0.243635239737898,1
887,833,43,0.151305632856289,1
887,865,43,0.119475495591731,1
887,866,43,0.188237732344617,1
887,867,43,0.176658022603858,1
888,830,43,0.138807692630197,1
888,831,43,0.268863501315099,1
888,832,43,0.289411824670914,1
888,833,43,0.182149328026144,1
888,834,43,0.128491334440484,1
888,866,43,0.184423287801456,1
888,867,43,0.168583379129641,1
888,868,43,0.123800691047669,1
889,831,43,0.23137262485339,1
889,832,43,0.260690450346424,1
889,833,43,0.186041205464956,1
889,834,43,0.148063708889433,1
889,866,43,0.133460559604652,1
889,867,43,0.131516858489835,1
890,832,43,0.193543528569594,1
890,833,43,0.184465684519988,1
890,834,43,0.171304365194405,1
891,833,43,0.205931249104369,1
891,834,43,0.187147854033563,1
892,834,43,0.179408898355186,1
893,837,43,0.130873311633123,1
903,870,43,0.145593935158836,1
903,871,43,0.128413654230641,1
904,869,43,0.12551858252884,1
913,866,43,0.120244666280825,1
869,844,44,0.195380472391775,1
869,845,44,0.16586490153739,1
869,849,44,0.136693709806144,1
869,850,44,0.115913782598484,1
869,852,44,0.124444496995439,1
869,853,44,0.140922641157283,1
870,842,44,0.131347636698562,1
870,843,44,0.148636205912006,1
870,844,44,0.142919514823259,1
870,845,44,0.138975218552729,1
870,846,44,0.129294646264863,1
871,841,44,0.136581240733373,1
871,842,44,0.138021233501435,1
871,843,44,0.130254178220165,1
871,844,44,0.126010985083986,1
871,845,44,0.13383201374332,1
871,846,44,0.12342741149473,1
872,840,44,0.135843078533138,1
872,841,44,0.147669937589204,1
872,842,44,0.146883443129843,1
872,843,44,0.130227291634496,1
872,844,44,0.116748915515494,1
872,845,44,0.114719525921778,1
873,840,44,0.127233824215102,1
873,841,44,0.140989863509889,1
873,842,44,0.141451080923182,1
873,843,44,0.125610182994601,1
874,839,44,0.120186158809251,1
874,840,44,0.115719216991022,1
874,841,44,0.127942296935499,1
874,842,44,0.13059822759105,1
874,843,44,0.118812940872877,1
875,841,44,0.116433695913211,1
875,842,44,0.119893374137191,1
876,831,44,0.264104469659919,1
876,832,44,0.234379494346586,1
876,838,44,0.123220951252347,1
877,830,44,0.146332450665058,1
877,831,44,0.306289440136257,1
877,832,44,0.281813578990598,1
877,833,44,0.143755189476117,1
878,830,44,0.130927226126855,1
878,831,44,0.274041600979232,1
878,832,44,0.277374501237937,1
878,833,44,0.152725816935303,1
879,831,44,0.213080819733958,1
879,832,44,0.256192229171411,1
879,833,44,0.174537644941426,1
879,834,44,0.119434264782958,1
879,864,44,0.13457236644068,1
880,832,44,0.237593872223262,1
880,833,44,0.199499007398604,1
880,834,44,0.144072811559117,1
880,864,44,0.119505785691748,1
881,831,44,0.172502390468313,1
881,832,44,0.23094189774684,1
881,833,44,0.190306833531357,1
881,834,44,0.127134557009407,1
882,831,44,0.195153108211783,1
882,832,44,0.240639534713915,1
882,833,44,0.171132328732096,1
883,831,44,0.194518676649555,1
883,832,44,0.262586596475288,1
883,833,44,0.182738065347287,1
884,831,44,0.195511584243834,1
884,832,44,0.304455263877647,4
884,833,44,0.221934408696264,1
885,831,44,0.19406801130843,1
885,832,44,0.290830489534182,1
885,833,44,0.204512584241102,1
886,831,44,0.195642849195155,1
886,832,44,0.255341350584213,1
886,833,44,0.171133106005269,1
886,866,44,0.16324321800892,1
887,831,44,0.207830857631913,1
887,832,44,0.253980604349206,1
887,833,44,0.175375863397396,1
887,834,44,0.114956040726853,1
887,865,44,0.126144075449577,1
887,866,44,0.187576331758656,1
887,867,44,0.159118971221955,1
888,831,44,0.23868864971068,1
888,832,44,0.286423232874152,1
888,833,44,0.200143178429228,1
888,834,44,0.138698203104589,1
888,865,44,0.136799360073352,1
888,866,44,0.21121251411693,1
888,867,44,0.160700898782168,1
889,831,44,0.218087306902968,1
889,832,44,0.259899563115948,1
889,833,44,0.189268231695994,1
889,834,44,0.138517593083644,1
889,866,44,0.16220287319735,1
889,867,44,0.131299728406621,1
890,832,44,0.209676269020934,1
890,833,44,0.188015208456657,1
890,834,44,0.145754548060873,1
891,833,44,0.227504301147095,1
891,834,44,0.172753437926352,1
892,834,44,0.169678827898435,1
893,837,44,0.124959028282286,1
903,870,44,0.115479098464871,1
904,869,44,0.118552377706901,1
912,866,44,0.117719341072085,1
868,850,45,0.177408432745002,1
869,845,45,0.20145121141086,1
869,849,45,0.14791951293896,1
869,850,45,0.131448705764795,1
869,851,45,0.134812873603417,1
869,852,45,0.15912219808331,1
870,842,45,0.133346618423598,1
870,844,45,0.160487325312565,1
870,845,45,0.174874910837346,1
870,846,45,0.165636595208097,1
870,847,45,0.133201645199952,1
870,852,45,0.127243033724517,1
871,840,45,0.138013448992838,1
871,841,45,0.147069411624935,1
871,842,45,0.146688135579807,1
871,843,45,0.139141401912507,1
871,844,45,0.140927210581392,1
871,845,45,0.154186383888719,1
871,846,45,0.144237381488217,1
871,847,45,0.119304613262315,1
872,840,45,0.144000360277893,1
872,841,45,0.162062010100029,1
872,842,45,0.161722247508463,1
872,843,45,0.14483289050746,1
872,844,45,0.129773505423812,1
872,845,45,0.127079653258909,1
872,846,45,0.123024089155965,1
872,847,45,0.114194913637413,1
873,840,45,0.135098945461709,1
873,841,45,0.155575147288556,1
873,842,45,0.15761949350242,1
873,843,45,0.143339183452391,1
873,844,45,0.121165275693142,1
874,840,45,0.122104940075065,1
874,841,45,0.14049262066271,1
874,842,45,0.145316059999459,1
874,843,45,0.137628569226634,1
874,844,45,0.116675557415568,1
875,841,45,0.127711847216547,1
875,842,45,0.131357564596818,1
875,843,45,0.12371855918238,1
876,831,45,0.253367806890296,1
876,832,45,0.225494955779752,1
876,842,45,0.114280684554376,1
877,830,45,0.133068130867176,1
877,831,45,0.287234611851918,1
877,832,45,0.273775820661504,1
877,833,45,0.130669854491636,1
878,831,45,0.247997014140436,1
878,832,45,0.264930404844381,1
878,833,45,0.135802059707958,1
879,831,45,0.19307674069856,1
879,832,45,0.253507739615183,1
879,833,45,0.164415546160652,1
880,831,45,0.161129093862472,1
880,832,45,0.258768324450593,1
880,833,45,0.210425277714994,1
880,834,45,0.123806167290479,1
881,831,45,0.166074659302325,1
881,832,45,0.288946450023832,1
881,833,45,0.2400701938915,1
881,834,45,0.127411348697088,1
882,831,45,0.178948623091194,1
882,832,45,0.308673501834223,1
882,833,45,0.234719280491885,1
883,831,45,0.175067333055148,1
883,832,45,0.319037544555418,4
883,833,45,0.239692274253255,1
884,831,45,0.178418970308071,4
884,832,45,0.355553013846109,4
884,833,45,0.284432918922682,4
884,834,45,0.121668359865985,1
885,831,45,0.169308009710544,1
885,832,45,0.325039106262099,4
885,833,45,0.260937693876661,1
885,834,45,0.116331166515562,1
886,831,45,0.165744294650033,1
886,832,45,0.274130681195614,1
886,833,45,0.21117631203005,1
886,866,45,0.146970026650577,1
887,831,45,0.172641098399109,1
887,832,45,0.254790122582103,1
887,833,45,0.200762877131766,1
887,834,45,0.118412621635008,1
887,865,45,0.123610847963577,1
887,866,45,0.16889659666466,1
887,867,45,0.139809409320438,1
888,831,45,0.190943596913104,1
888,832,45,0.257833476806969,1
888,833,45,0.208492434870868,1
888,834,45,0.139517225268557,1
888,865,45,0.146992803109922,1
888,866,45,0.19917236423605,1
888,867,45,0.137979767155338,1
889,831,45,0.183270415032783,1
889,832,45,0.235825434432109,1
889,833,45,0.190592952497115,1
889,834,45,0.129920209846798,1
889,865,45,0.115122282970962,1
889,866,45,0.164293196297089,1
889,867,45,0.1187198800757,1
890,832,45,0.21214714977696,1
890,833,45,0.195155687345493,1
890,834,45,0.128943330567497,1
891,833,45,0.230882424572234,1
891,834,45,0.151900270387428,1
892,834,45,0.148047327268467,1
905,868,45,0.117371240459207,1
910,866,45,0.116466506262608,1
911,866,45,0.125722652067372,1
912,866,45,0.138524871186992,1
869,849,46,0.169836013732391,1
869,850,46,0.154863212169479,1
869,851,46,0.152201852378583,1
869,852,46,0.176570485156956,1
870,841,46,0.113772583436507,1
870,842,46,0.124894549939519,1
870,845,46,0.204254812192429,1
870,846,46,0.198516110140645,1
870,847,46,0.157365548935282,1
870,848,46,0.131762629911789,1
870,849,46,0.124904089201188,1
870,850,46,0.134982625353671,1
870,851,46,0.138547989175458,1
870,852,46,0.14484837708659,1
870,853,46,0.114452379487563,1
871,840,46,0.134200547219157,1
871,841,46,0.144076379949593,1
871,842,46,0.14115373860388,1
871,843,46,0.135680239803377,1
871,844,46,0.142231616288216,1
871,845,46,0.162125004557647,1
871,846,46,0.157186222592759,1
871,847,46,0.131252055652005,1
872,840,46,0.139792061996439,1
872,841,46,0.157739582207661,1
872,842,46,0.15800844806435,1
872,843,46,0.14594752379139,1
872,844,46,0.131937728359325,1
872,845,46,0.12844189515593,1
872,846,46,0.132296899226486,1
872,847,46,0.129395303140777,1
873,839,46,0.122925528562245,1
873,840,46,0.130630602196395,1
873,841,46,0.151671210338694,1
873,842,46,0.156508970344814,1
873,843,46,0.147570163978259,1
873,844,46,0.12850513692774,1
873,845,46,0.115955013407256,1
873,846,46,0.11887906797692,1
873,847,46,0.122969067636804,1
874,840,46,0.11847705287031,1
874,841,46,0.137750695329738,1
874,842,46,0.144814813017752,1
874,843,46,0.140259356272722,1
874,844,46,0.123783591037861,1
875,841,46,0.126689473902888,1
875,842,46,0.131291731914431,1
875,843,46,0.124416220739551,1
876,841,46,0.11386575022548,1
876,842,46,0.115322230606304,1
877,831,46,0.239232576055709,1
877,832,46,0.234837614444053,1
878,832,46,0.223453600889917,1
879,832,46,0.214746775234927,1
880,832,46,0.235781247629906,1
881,831,46,0.149496294008618,1
881,832,46,0.287078568373989,1
881,833,46,0.242837498371259,1
881,834,46,0.11637461137519,1
882,831,46,0.15790226783816,1
882,832,46,0.311088607351648,1
882,833,46,0.251304146615767,1
883,831,46,0.15218413997173,1
883,832,46,0.306021045354219,1
883,833,46,0.246603975738148,1
884,831,46,0.153499003535792,1
884,832,46,0.325193689408612,4
884,833,46,0.280076938738343,1
884,834,46,0.117330645601213,1
885,831,46,0.142946071656673,1
885,832,46,0.297648352948725,1
885,833,46,0.265469950195162,1
885,834,46,0.115428870130278,1
886,831,46,0.138927463360049,1
886,832,46,0.258879992696459,1
886,833,46,0.227510283795155,1
887,832,46,0.235240147732779,1
887,833,46,0.211577220111232,1
887,834,46,0.117332647668477,1
887,865,46,0.115437408358315,1
887,866,46,0.1407267918714,1
888,832,46,0.21602206852836,1
888,833,46,0.198957177335769,1
888,834,46,0.128920754314879,1
888,865,46,0.138842893683445,1
888,866,46,0.161370766934969,1
888,867,46,0.114048114999497,1
889,832,46,0.196767963890055,1
889,833,46,0.17836363081352,1
889,834,46,0.117496251894544,1
889,865,46,0.121523009782619,1
889,866,46,0.144750829303368,1
890,833,46,0.185372632767444,1
890,834,46,0.115304659521846,1
891,833,46,0.205705368809526,1
891,834,46,0.129273483236196,1
892,834,46,0.124157883401298,1
906,867,46,0.115708028968076,1
909,866,46,0.123827554079605,1
910,866,46,0.135334188365229,1
911,866,46,0.146564619806484,1
912,865,46,0.128454284419234,1
870,842,47,0.1207670409606,1
870,843,47,0.137224681598288,1
870,847,47,0.175407672713161,1
870,848,47,0.157213179839625,1
870,849,47,0.166913419494143,1
870,850,47,0.200561634041136,1
870,851,47,0.174271381772181,1
870,852,47,0.151668690089315,1
871,840,47,0.126666261699492,1
871,841,47,0.137675064294624,1
871,842,47,0.134320859684857,1
871,843,47,0.131731586092331,1
871,844,47,0.13814099245442,1
871,845,47,0.159262648990313,1
871,846,47,0.160797410201159,1
871,847,47,0.13942023099805,1
871,848,47,0.119078862513,1
871,849,47,0.116557718091782,1
871,850,47,0.132759294326405,1
871,851,47,0.118583056443505,1
872,839,47,0.126968385426495,1
872,840,47,0.131135276246183,1
872,841,47,0.148993268720106,1
872,842,47,0.150387555470218,1
872,843,47,0.143634323497703,1
872,844,47,0.129584321844231,1
872,845,47,0.124157553649043,1
872,846,47,0.134397527084201,1
872,847,47,0.137063385638008,1
872,848,47,0.116994133424734,1
873,840,47,0.124768019288434,1
873,841,47,0.145815587558692,1
873,842,47,0.153371919371993,1
873,843,47,0.149813598116229,1
873,844,47,0.135240903807593,1
873,845,47,0.124289266121282,1
873,846,47,0.130219518902765,1
873,847,47,0.134603127615348,1
873,848,47,0.116763295069196,1
874,840,47,0.116358076654963,1
874,841,47,0.136173066325709,1
874,842,47,0.144645814986939,1
874,843,47,0.140892233288603,1
874,844,47,0.130809551679197,1
874,845,47,0.124890852003513,1
874,846,47,0.122180394457185,1
874,847,47,0.115116794951286,1
875,841,47,0.127640679613745,1
875,842,47,0.13262461408387,1
875,843,47,0.124649708889998,1
875,844,47,0.117327359855527,1
875,845,47,0.115645458477643,1
876,841,47,0.115827517053138,1
876,842,47,0.115472138336912,1
881,832,47,0.242519099015087,1
882,831,47,0.134610817909015,1
882,832,47,0.266488719787745,1
882,833,47,0.235956605168499,1
883,831,47,0.129428266589436,1
883,832,47,0.255510678367282,1
883,833,47,0.230113041899546,1
884,831,47,0.126838168616272,1
884,832,47,0.252935784328458,1
884,833,47,0.235736024463472,1
885,832,47,0.23850770993748,1
885,833,47,0.234240386002337,1
886,832,47,0.220953937472754,1
886,833,47,0.226558618786514,1
887,833,47,0.212367235853605,1
887,834,47,0.118114431381335,1
888,833,47,0.181424556122845,1
888,865,47,0.123485247684927,1
888,866,47,0.118368328841008,1
889,865,47,0.123713471576156,1
889,866,47,0.115486482560016,1
906,867,47,0.131151175015633,1
906,868,47,0.158448985300492,1
907,866,47,0.135128988247535,1
907,867,47,0.17011756327404,1
908,866,47,0.157488593633954,1
909,865,47,0.121985923064653,1
909,866,47,0.169884793512435,1
910,865,47,0.138717034313737,1
911,865,47,0.158488661562918,1
870,848,48,0.174449412659415,1
870,849,48,0.188519529200457,1
870,850,48,0.237575005683516,1
870,851,48,0.195170349543986,1
871,841,48,0.122780013602752,1
871,842,48,0.120695614266741,1
871,843,48,0.119646695896535,1
871,844,48,0.125525212904544,1
871,846,48,0.153713954898748,1
871,847,48,0.14375933493304,1
871,848,48,0.130063616747231,1
871,849,48,0.132548782842029,1
871,850,48,0.150925887803774,1
871,851,48,0.126931712264966,1
872,840,48,0.116030726880433,1
872,841,48,0.130364303696551,1
872,842,48,0.13301554715933,1
872,843,48,0.12979551638685,1
872,844,48,0.119535687155179,1
872,845,48,0.116474985606314,1
872,846,48,0.12988790590265,1
872,847,48,0.136139961554656,1
872,848,48,0.120037687856327,1
873,841,48,0.129869463330089,1
873,842,48,0.137642595474348,1
873,843,48,0.13733658538148,1
873,844,48,0.129595745404502,1
873,845,48,0.125456765757847,1
873,846,48,0.133991342966936,1
873,847,48,0.137333664718647,1
873,848,48,0.117656535044327,1
874,841,48,0.126011303059375,1
874,842,48,0.132762509410894,1
874,843,48,0.129319471898937,1
874,844,48,0.127317616618534,1
874,845,48,0.132294143439781,1
874,846,48,0.134790144251537,1
874,847,48,0.124718061821764,1
875,841,48,0.123325788915783,1
875,842,48,0.125514696162975,1
875,843,48,0.117123655399849,1
875,844,48,0.116267135693713,1
875,845,48,0.124540419571117,1
875,846,48,0.122739984034338,1
876,841,48,0.116190597839897,1
882,832,48,0.195171998305262,1
883,832,48,0.187475875089469,1
884,832,48,0.174548538542715,1
886,834,48,0.132973845275908,1
887,834,48,0.126968915385477,1
906,866,48,0.137579436140602,1
906,867,48,0.151828443280115,1
907,865,48,0.114740853826572,1
907,866,48,0.186687037033722,1
907,867,48,0.186829690214715,1
908,865,48,0.147941476794533,1
909,865,48,0.172228060145681,1
910,865,48,0.192339485317027,1
871,847,49,0.139917273638502,1
871,848,49,0.137419141213954,1
871,849,49,0.145102027232072,1
871,850,49,0.15261543236786,1
871,851,49,0.127555945061013,1
872,842,49,0.11502080171441,1
872,843,49,0.116736914888776,1
872,846,49,0.122680711066457,1
872,847,49,0.12797336430869,1
872,848,49,0.115944214020896,1
873,841,49,0.114122756777846,1
873,842,49,0.120844002781602,1
873,843,49,0.1232425382482,1
873,844,49,0.123102617300179,1
873,845,49,0.125721592149409,1
873,846,49,0.135640068912568,1
873,847,49,0.135303768719682,1
874,841,49,0.114144932617011,1
874,842,49,0.11810928489078,1
874,843,49,0.116981944368157,1
874,844,49,0.121901518264177,1
874,845,49,0.136216452301007,1
874,846,49,0.150620631430346,1
874,847,49,0.138046612648222,1
875,841,49,0.113827145657884,1
875,845,49,0.131829734495732,1
875,846,49,0.143317478687876,1
875,847,49,0.121083355811445,1
906,866,49,0.15397490670131,1
907,865,49,0.132286394261783,1
873,845,50,0.121524281684175,1
873,846,50,0.131270745538758,1
873,847,50,0.124859596200463,1
874,845,50,0.130707705339791,1
874,846,50,0.151519229879624,1
874,847,50,0.136228217390399,1
875,845,50,0.126972095139367,1
875,846,50,0.14524154776664,1
875,847,50,0.120553385052933,1
876,846,50,0.114231056839962,1
877,841,50,0.114051754051171,1
878,841,50,0.118735295993633,1
907,865,50,0.133110539362574,1
908,865,50,0.182130697023722,1
909,864,50,0.116803689720463,1
873,845,51,0.121250010245874,1
873,846,51,0.134324581174595,1
873,847,51,0.11863432114233,1
874,845,51,0.128610798971814,1
874,846,51,0.155464256315863,1
874,847,51,0.134241660259266,1
875,845,51,0.123016634399623,1
875,846,51,0.144862556433565,1
875,847,51,0.119888604506357,1
876,846,51,0.115149781953677,1
877,841,51,0.116956082369852,1
878,841,51,0.125460122164731,1
881,839,51,0.114957654157531,1
881,840,51,0.116658068769173,1
873,846,52,0.134218660039463,1
874,845,52,0.125754791135393,1
874,846,52,0.153879549415213,1
874,847,52,0.12825056818669,1
875,845,52,0.118463909887565,1
875,846,52,0.138669538212115,1
875,847,52,0.117196024243009,1
877,845,52,0.118068807801448,1
878,841,52,0.122480009711675,1
881,838,52,0.121419526458803,1
881,839,52,0.152256932782075,1
881,840,52,0.136680307732342,1
882,838,52,0.13175790738842,1
882,839,52,0.151480978618016,1
882,840,52,0.126540790966371,1
874,846,53,0.13354432845435,1
877,845,53,0.113921301703623,1
880,840,53,0.123426634221557,1
881,839,53,0.173158479687591,1
881,840,53,0.137726894283029,1
882,839,53,0.182256509285965,1
882,840,53,0.130017003910579,1
883,838,53,0.125765649406083,1
883,839,53,0.133025133528465,1
881,840,54,0.126948235208327,1
882,840,54,0.121093389701498,1
883,839,54,0.146929255139589,1
905,858,54,0.121352916503243,1
905,857,55,0.152738818595653,1
904,855,56,0.136013878424489,1
