x,y,z,signal,mito.p
448,141,46,0.285581186936648,2
452,137,46,0.22501827534106,2
452,138,46,0.254400638061192,2
453,137,46,0.279877320855257,2
453,138,46,0.298260608671787,2
454,138,46,0.234876195457917,2
447,141,47,0.259532525302126,2
447,142,47,0.260587873841309,2
447,143,47,0.213065604022751,2
448,140,47,0.261483198321768,2
448,141,47,0.37355206962408,2
448,142,47,0.324158997492846,2
449,141,47,0.275633150239179,2
451,137,47,0.202686557573943,2
451,138,47,0.193733336323087,2
452,136,47,0.220238587062462,2
452,137,47,0.299565438345797,2
452,138,47,0.343940505532819,2
452,139,47,0.265803047080425,2
453,136,47,0.215615413336444,2
453,137,47,0.325100840595028,2
453,138,47,0.393376233473641,2
453,139,47,0.272682739042827,2
454,137,47,0.26989553165909,2
454,138,47,0.305149675019731,2
454,139,47,0.218235059467051,2
455,137,47,0.246783690717257,2
455,138,47,0.278082267346358,2
443,145,48,0.238249843673877,2
446,141,48,0.197744819615624,2
446,142,48,0.233117956432944,2
446,143,48,0.263547117687355,2
446,144,48,0.252467277034951,2
447,140,48,0.25058257802009,2
447,141,48,0.292710619124934,2
447,142,48,0.315910174166662,2
447,143,48,0.300701741063643,2
447,144,48,0.267113270559182,2
448,140,48,0.269557865349718,2
448,141,48,0.407253880689416,2
448,142,48,0.383792337480894,2
448,143,48,0.254250011941742,2
449,141,48,0.296473539878212,2
449,142,48,0.248939870053116,2
450,137,48,0.193568330649935,2
451,136,48,0.306986607065046,2
451,137,48,0.286702792125403,2
451,138,48,0.256727040221955,2
451,139,48,0.211631252373627,2
452,135,48,0.225657712071448,2
452,136,48,0.296455898132556,2
452,137,48,0.385900749847207,2
452,138,48,0.425345596851111,2
452,139,48,0.307339889499077,2
452,140,48,0.249159744146167,2
453,136,48,0.238811717963085,2
453,137,48,0.356326612636917,2
453,138,48,0.455754360573162,2
453,139,48,0.327125024813857,2
453,140,48,0.210122094070028,2
454,136,48,0.228897080458325,2
454,137,48,0.29027278425563,2
454,138,48,0.388129592447882,2
454,139,48,0.306150708651729,2
454,140,48,0.168245500836676,2
455,136,48,0.2677701134979,2
455,137,48,0.297164229530558,2
455,138,48,0.365509459226087,2
455,139,48,0.285357120279208,2
456,135,48,0.279534425617266,2
456,136,48,0.293688829190122,2
456,137,48,0.276726608717576,2
456,138,48,0.278135922749033,2
457,135,48,0.264961990399687,2
457,136,48,0.261201754771916,2
442,138,49,0.202143761808075,1
442,139,49,0.236515582348607,1
442,145,49,0.225494225614043,2
443,138,49,0.198796164020279,1
443,139,49,0.256587955431439,1
443,144,49,0.253100707563546,2
443,145,49,0.348812665765281,2
443,146,49,0.320248583266543,2
444,145,49,0.287004680315081,2
444,146,49,0.280359300883764,2
445,142,49,0.234426813795214,2
445,143,49,0.22607845239541,2
445,144,49,0.211477234516695,2
446,139,49,0.311328195918816,2
446,140,49,0.292135013009669,2
446,141,49,0.255074180596266,2
446,142,49,0.29462718633989,2
446,143,49,0.345829397112067,2
446,144,49,0.321616324960107,2
446,145,49,0.202370560698487,2
447,140,49,0.28735176811746,2
447,141,49,0.314432766294496,2
447,142,49,0.358938768680583,2
447,143,49,0.393394770261133,2
447,144,49,0.349764142344062,2
447,145,49,0.212869260108485,2
448,140,49,0.261859704736062,2
448,141,49,0.37736506561269,2
448,142,49,0.388458025694107,2
448,143,49,0.29942915644945,2
448,144,49,0.218704956430777,2
449,140,49,0.234802519382602,2
449,141,49,0.302496370605356,2
449,142,49,0.2700588767941,2
449,143,49,0.167970746546858,2
450,136,49,0.283400464611506,2
450,137,49,0.269209529199515,2
450,138,49,0.248416176364319,2
450,139,49,0.229774409887141,2
450,140,49,0.246425721090455,2
450,141,49,0.25554798747959,2
451,135,49,0.2982746702501,2
451,136,49,0.394721999534767,2
451,137,49,0.380132511414845,2
451,138,49,0.344181130464219,2
451,139,49,0.280538992309141,2
451,140,49,0.268316866290831,2
451,141,49,0.267020963481445,2
452,135,49,0.257620150651557,2
452,136,49,0.374407800280176,2
452,137,49,0.448901496312098,2
452,138,49,0.465286273478243,2
452,139,49,0.337863501220884,2
452,140,49,0.261592063673465,2
453,135,49,0.217390752371225,2
453,136,49,0.282586212078373,2
453,137,49,0.371804688869797,2
453,138,49,0.458704324248596,2
453,139,49,0.363579254400002,2
453,140,49,0.226186564027666,2
454,136,49,0.241326243785465,2
454,137,49,0.305219252745588,2
454,138,49,0.437501536881047,2
454,139,49,0.398923773432313,2
454,140,49,0.216409645196937,2
455,135,49,0.273210271990024,2
455,136,49,0.287213601922512,2
455,137,49,0.328606295498156,2
455,138,49,0.419417310806292,2
455,139,49,0.353973076576294,2
455,140,49,0.17535831586667,2
456,134,49,0.251254825099875,2
456,135,49,0.335559427998548,2
456,136,49,0.36709069195119,2
456,137,49,0.321314507431627,2
456,138,49,0.283431343554837,2
456,139,49,0.20427511550986,2
457,134,49,0.243644307924917,2
457,135,49,0.317114405849089,2
457,136,49,0.328122478278512,2
457,137,49,0.237501447376863,2
458,135,49,0.229656782546948,2
458,136,49,0.204605974790534,2
441,138,50,0.200766292422981,1
441,139,50,0.173089679234907,1
442,137,50,0.203202195886218,1
442,138,50,0.278478935755687,2
442,139,50,0.289414604011351,1
442,140,50,0.233453408691459,1
442,145,50,0.227419578371229,2
442,146,50,0.21642726338886,2
443,137,50,0.183479430855145,1
443,138,50,0.25721806488375,2
443,139,50,0.303690756827591,2
443,140,50,0.259623112957389,1
443,144,50,0.272842927977679,2
443,145,50,0.398349580540999,2
443,146,50,0.36975779885282,2
443,147,50,0.236262097079252,2
444,138,50,0.230472778056288,1
444,139,50,0.243750346828711,2
444,144,50,0.227161476570301,2
444,145,50,0.346830124545543,2
444,146,50,0.341583247982458,2
444,147,50,0.217189579941792,2
445,139,50,0.267115932130956,2
445,140,50,0.262432767048215,2
445,141,50,0.250260433620447,2
445,142,50,0.264864501500797,2
445,143,50,0.240681177713006,2
445,144,50,0.217023643896206,2
445,145,50,0.205009261798701,2
445,146,50,0.191566687353125,2
446,138,50,0.22970676356735,2
446,139,50,0.311397750090941,2
446,140,50,0.33579913433438,2
446,141,50,0.333360922605356,2
446,142,50,0.379381147347534,2
446,143,50,0.402693689644149,2
446,144,50,0.343056109984248,2
446,145,50,0.19330697843392,2
447,139,50,0.258949641083513,2
447,140,50,0.296217298822153,2
447,141,50,0.326855687882519,2
447,142,50,0.387691092609602,2
447,143,50,0.425907824446306,2
447,144,50,0.36509858791605,2
447,145,50,0.20016555447512,2
448,140,50,0.252590887023203,2
448,141,50,0.31940140261535,2
448,142,50,0.35203811389624,2
448,143,50,0.304748201648969,2
448,144,50,0.225520370257138,2
449,136,50,0.197064222737662,2
449,137,50,0.234889668192917,2
449,138,50,0.250330270437362,2
449,139,50,0.249821816013504,2
449,140,50,0.259023788233479,2
449,141,50,0.319769806545658,2
449,142,50,0.303807230034891,2
449,143,50,0.196029224623373,2
450,135,50,0.230223673781181,2
450,136,50,0.327432236147084,2
450,137,50,0.351542637579,2
450,138,50,0.349796882032261,2
450,139,50,0.31964231019154,2
450,140,50,0.317650371032527,2
450,141,50,0.364045571196385,2
450,142,50,0.290551990200894,2
451,134,50,0.166213956076434,2
451,135,50,0.297535271478908,2
451,136,50,0.46006177296105,2
451,137,50,0.472867937330867,2
451,138,50,0.451324986958298,2
451,139,50,0.377174563024088,2
451,140,50,0.334484270770317,2
451,141,50,0.347792058981561,2
451,142,50,0.241524095138613,2
452,134,50,0.176206968626146,2
452,135,50,0.28643164155666,2
452,136,50,0.46917070793758,2
452,137,50,0.511502795027223,2
452,138,50,0.488521229779945,2
452,139,50,0.376732365249803,2
452,140,50,0.285499620360939,2
452,141,50,0.257748282956453,2
453,133,50,0.250642969790265,2
453,134,50,0.228815560990082,2
453,135,50,0.25189685274084,2
453,136,50,0.353720297918915,2
453,137,50,0.402589629253887,2
453,138,50,0.43842215807023,2
453,139,50,0.395457370617699,2
453,140,50,0.270359610850884,2
453,141,50,0.183144061034693,2
454,132,50,0.247578322991203,2
454,133,50,0.310316963520639,2
454,134,50,0.294693160344672,2
454,135,50,0.245502956511613,2
454,136,50,0.26271020646354,2
454,137,50,0.318831708486947,2
454,138,50,0.440914614045241,2
454,139,50,0.481635248970961,2
454,140,50,0.30771863351796,2
454,141,50,0.159421778007202,2
455,133,50,0.264338805744737,2
455,134,50,0.285432892636717,2
455,135,50,0.287773474144455,2
455,136,50,0.30503861917091,2
455,137,50,0.34302478352,2
455,138,50,0.422993426906974,2
455,139,50,0.415079561210922,2
455,140,50,0.240534414405689,2
456,133,50,0.208055913546119,2
456,134,50,0.288552984922125,2
456,135,50,0.39923388187464,2
456,136,50,0.426273755234699,2
456,137,50,0.349344626814191,2
456,138,50,0.278972951741511,2
456,139,50,0.212826156777978,2
457,134,50,0.279237742802474,2
457,135,50,0.386837128483444,2
457,136,50,0.382252088250371,2
457,137,50,0.257081523896345,2
458,135,50,0.260127068618335,2
458,136,50,0.231778267234808,2
441,137,51,0.203872111146484,1
441,138,51,0.232900861680329,2
441,139,51,0.198183225238974,1
442,136,51,0.133991625611726,1
442,137,51,0.263038451279905,2
442,138,51,0.344213069325512,2
442,139,51,0.305391454084024,2
442,140,51,0.219523377974566,1
442,145,51,0.234777575979866,2
442,146,51,0.239690554830781,2
442,147,51,0.245130689769172,2
442,148,51,0.304568439562394,2
443,137,51,0.249594381172315,2
443,138,51,0.32207609381885,2
443,139,51,0.3122401257807,2
443,140,51,0.248059031118155,2
443,144,51,0.270205522332754,2
443,145,51,0.379583332587465,2
443,146,51,0.368949316984154,2
443,147,51,0.233229035835497,2
444,137,51,0.230543509915038,1
444,138,51,0.26844259611501,2
444,139,51,0.284410801967848,2
444,140,51,0.263662130563239,2
444,141,51,0.215109714699291,2
444,142,51,0.209456206498023,2
444,144,51,0.239896014039532,2
444,145,51,0.364240313456841,2
444,146,51,0.369836656749289,2
444,147,51,0.210340130971943,2
445,138,51,0.257246400023968,2
445,139,51,0.312705523981515,2
445,140,51,0.334630280358194,2
445,141,51,0.299579806122633,2
445,142,51,0.292999034579612,2
445,143,51,0.263974099750434,2
445,144,51,0.22864208775009,2
445,145,51,0.228530231074364,2
445,146,51,0.225086439842966,2
446,138,51,0.227844464152114,2
446,139,51,0.305576115346962,2
446,140,51,0.371904768679264,2
446,141,51,0.404919705796922,2
446,142,51,0.454461967269922,2
446,143,51,0.42855027058999,2
446,144,51,0.327923849652191,2
446,145,51,0.195063121176699,2
447,139,51,0.245393502316604,2
447,140,51,0.292204096107143,2
447,141,51,0.348445604397727,2
447,142,51,0.422657220929018,2
447,143,51,0.419235570206187,2
447,144,51,0.33149638558553,2
447,145,51,0.191312212827005,2
448,140,51,0.24566646652275,2
448,141,51,0.275827916053367,2
448,142,51,0.316333740938526,2
448,143,51,0.286380577064562,2
448,144,51,0.216563686607602,2
449,136,51,0.22507758363954,2
449,137,51,0.234014340831366,2
449,138,51,0.248151338195891,2
449,139,51,0.277439674415813,2
449,140,51,0.283475695233167,2
449,141,51,0.336161602724093,2
449,142,51,0.338310880816323,2
449,143,51,0.221518096474016,2
450,131,51,0.228417385141872,2
450,135,51,0.230062919556749,2
450,136,51,0.332857555787722,2
450,137,51,0.382507599140722,2
450,138,51,0.39630987441244,2
450,139,51,0.374736209972669,2
450,140,51,0.369251676248482,2
450,141,51,0.453109417733831,2
450,142,51,0.407926810827444,2
450,143,51,0.211722899946853,2
451,131,51,0.237334781165569,2
451,134,51,0.185684908153162,2
451,135,51,0.286506730855927,2
451,136,51,0.463280013649859,2
451,137,51,0.512647600642508,2
451,138,51,0.510308715003511,2
451,139,51,0.448703880496275,2
451,140,51,0.383088363523409,2
451,141,51,0.399022934646212,2
451,142,51,0.315142416701518,2
451,143,51,0.156870602577023,2
452,133,51,0.214661628491876,2
452,134,51,0.215646386494704,2
452,135,51,0.317771978953515,2
452,136,51,0.515746565229848,2
452,137,51,0.533616452338692,2
452,138,51,0.480735166636534,2
452,139,51,0.411972776784386,2
452,140,51,0.320410774268659,2
452,141,51,0.261393717691934,2
452,142,51,0.182320445892884,2
453,132,51,0.278745210701799,2
453,133,51,0.318060677052983,2
453,134,51,0.295983598688114,2
453,135,51,0.296576069275861,2
453,136,51,0.404583075851781,2
453,137,51,0.419685069637552,2
453,138,51,0.407502608104802,2
453,139,51,0.425568933342843,2
453,140,51,0.337291286843102,2
453,141,51,0.203390555085161,2
454,131,51,0.208100147455787,2
454,132,51,0.319291618668085,2
454,133,51,0.417290502974884,2
454,134,51,0.369665585990014,2
454,135,51,0.271406833352349,2
454,136,51,0.286518696152046,2
454,137,51,0.324621898998015,2
454,138,51,0.403270332123645,2
454,139,51,0.525442365005786,2
454,140,51,0.415890469114038,2
454,141,51,0.207880579561258,2
455,132,51,0.277277624736092,2
455,133,51,0.330407213886452,2
455,134,51,0.324265271933966,2
455,135,51,0.304410111372411,2
455,136,51,0.327813618184009,2
455,137,51,0.347877629691798,2
455,138,51,0.376620131714357,2
455,139,51,0.428485215180776,2
455,140,51,0.308332655770961,2
455,141,51,0.152606128643515,2
456,133,51,0.22866519396169,2
456,134,51,0.31179180403596,2
456,135,51,0.433031179771602,2
456,136,51,0.44844196299068,2
456,137,51,0.356019707502212,2
456,138,51,0.258049864947609,2
456,139,51,0.208489349331908,2
456,140,51,0.139809715518961,2
457,133,51,0.201132270318839,2
457,134,51,0.304884860405036,2
457,135,51,0.434898613900527,2
457,136,51,0.400116440232074,2
457,137,51,0.259963346623605,2
458,134,51,0.251481270684299,2
458,135,51,0.287532754998126,2
458,136,51,0.256386641679611,2
459,135,51,0.192785981647497,2
439,141,52,0.263541606113946,2
439,142,52,0.295406155381712,2
439,143,52,0.231550219996572,2
440,138,52,0.132335315364222,1
440,141,52,0.261364652386007,2
440,142,52,0.280237975607566,2
441,137,52,0.198868497532841,1
441,138,52,0.243856385732506,2
441,139,52,0.226995658293378,2
441,146,52,0.200464027373583,2
441,147,52,0.23845457271692,2
441,148,52,0.272213478029879,2
442,136,52,0.139999970793372,1
442,137,52,0.297001755883652,2
442,138,52,0.386675903184361,2
442,139,52,0.309801230993433,2
442,140,52,0.210720146892382,2
442,143,52,0.284644454994423,2
442,144,52,0.26734807771865,2
442,145,52,0.27191615926431,2
442,146,52,0.295144779611965,2
442,147,52,0.309533754806963,2
442,148,52,0.324378447618713,2
442,149,52,0.30534248587412,2
443,136,52,0.16005560894925,2
443,137,52,0.319227434746975,2
443,138,52,0.405267782856067,2
443,139,52,0.322034333051097,2
443,140,52,0.226981384731472,2
443,143,52,0.293068447429341,2
443,144,52,0.289095992671586,2
443,145,52,0.345989703815582,2
443,146,52,0.352069605236617,2
443,147,52,0.253800088543191,2
443,148,52,0.204194137777464,2
444,137,52,0.249734384558399,2
444,138,52,0.311906039638671,2
444,139,52,0.317375192775524,2
444,140,52,0.285297435121008,2
444,141,52,0.23620191729267,2
444,142,52,0.245215200561446,2
444,143,52,0.270577624199067,2
444,144,52,0.266626320693113,2
444,145,52,0.337374337303959,2
444,146,52,0.347581983241237,2
444,147,52,0.206177197179318,2
445,138,52,0.25032183820112,2
445,139,52,0.352745503144941,2
445,140,52,0.393749748563905,2
445,141,52,0.334226993350028,2
445,142,52,0.316560210076682,2
445,143,52,0.303583563790904,2
445,144,52,0.249078530876447,2
445,145,52,0.247727253241912,2
445,146,52,0.256440108652426,2
446,138,52,0.211771185098514,2
446,139,52,0.305990684593004,2
446,140,52,0.401518829466172,2
446,141,52,0.443976505057599,2
446,142,52,0.4870826620127,2
446,143,52,0.428295748956405,2
446,144,52,0.296522555195581,2
446,145,52,0.201582075948728,2
447,139,52,0.2178024480619,2
447,140,52,0.282879620924345,2
447,141,52,0.376567936643098,2
447,142,52,0.470296058169805,2
447,143,52,0.42262075975108,2
447,144,52,0.292383481333997,2
447,145,52,0.182835342262585,1
448,140,52,0.231976872307396,2
448,141,52,0.263335086987232,2
448,142,52,0.31167690892874,2
448,143,52,0.282211448640285,2
448,144,52,0.205947077212621,2
449,131,52,0.247863040509876,2
449,136,52,0.250882134390249,2
449,137,52,0.217228066740726,2
449,138,52,0.227236283224777,2
449,139,52,0.28057827993498,2
449,140,52,0.30513497749064,2
449,141,52,0.348970263789556,2
449,142,52,0.356459361473386,2
449,143,52,0.24440457530312,2
450,130,52,0.298980858258443,2
450,131,52,0.314525732876743,2
450,132,52,0.267984947092193,2
450,135,52,0.247512490308817,2
450,136,52,0.322490003560382,2
450,137,52,0.382149511745257,2
450,138,52,0.406426296743678,2
450,139,52,0.411786184115382,2
450,140,52,0.41998340121362,2
450,141,52,0.515717970998572,2
450,142,52,0.502467159266288,2
450,143,52,0.280918937568382,2
451,129,52,0.271703704597001,2
451,130,52,0.287931284152323,2
451,131,52,0.313792764274528,2
451,132,52,0.300942389548776,2
451,133,52,0.233203974664098,2
451,134,52,0.218625603905925,2
451,135,52,0.284687958738383,2
451,136,52,0.447566612075396,2
451,137,52,0.550233799059716,2
451,138,52,0.563492713275986,2
451,139,52,0.518380155170105,2
451,140,52,0.436463712318857,2
451,141,52,0.444498973952304,2
451,142,52,0.396483653850955,2
451,143,52,0.215288087115647,2
452,131,52,0.244597668802299,2
452,132,52,0.277183574682149,2
452,133,52,0.274512110340004,2
452,134,52,0.295660205940647,2
452,135,52,0.372470505780604,2
452,136,52,0.529736493088534,2
452,137,52,0.555105653093656,2
452,138,52,0.501606882739815,2
452,139,52,0.466454868363371,2
452,140,52,0.369567578909008,2
452,141,52,0.278837682655663,2
452,142,52,0.212325734176909,2
453,131,52,0.225200157263561,2
453,132,52,0.337975569880203,2
453,133,52,0.412315954667167,2
453,134,52,0.403390550374415,2
453,135,52,0.383653912194888,2
453,136,52,0.437815225490716,2
453,137,52,0.421513121925708,2
453,138,52,0.395025630700651,2
453,139,52,0.464569863149988,2
453,140,52,0.410949791073682,2
453,141,52,0.228841352327189,2
454,131,52,0.26331299358613,2
454,132,52,0.420126278155072,2
454,133,52,0.522497112076856,2
454,134,52,0.437244706981675,2
454,135,52,0.320294937012137,2
454,136,52,0.316860449505084,2
454,137,52,0.32366121290982,2
454,138,52,0.362814252721563,2
454,139,52,0.538274014514187,2
454,140,52,0.509275224328104,2
454,141,52,0.249078554430179,2
455,131,52,0.281098087257911,2
455,132,52,0.350108262376144,2
455,133,52,0.403920462248596,2
455,134,52,0.356353393230789,2
455,135,52,0.327186099642275,2
455,136,52,0.365917033013571,2
455,137,52,0.356144730714416,2
455,138,52,0.319020468099343,2
455,139,52,0.396432872003647,2
455,140,52,0.354022774951906,2
455,141,52,0.179622483601656,2
456,130,52,0.2874555223092,2
456,131,52,0.261778397251411,2
456,132,52,0.240184665031535,2
456,133,52,0.252239889301226,2
456,134,52,0.321581065022528,2
456,135,52,0.436663447970606,2
456,136,52,0.462975793640662,2
456,137,52,0.362167490780362,2
456,138,52,0.231692979169362,2
456,139,52,0.189132091122042,2
456,140,52,0.149766208006404,2
457,133,52,0.206338446032133,2
457,134,52,0.31883941055748,2
457,135,52,0.457227269682418,2
457,136,52,0.407751947917233,2
457,137,52,0.265948279395129,2
458,134,52,0.258012720711428,2
458,135,52,0.331362623938563,2
458,136,52,0.293757653196538,2
458,137,52,0.220589043048592,2
459,135,52,0.238586968247402,2
459,136,52,0.207202090742356,2
438,141,53,0.214667352048878,2
438,142,53,0.271998173360936,2
438,143,53,0.244427375316197,2
439,140,53,0.227737129793031,2
439,141,53,0.334455229018123,2
439,142,53,0.382250910563745,2
439,143,53,0.295412138029772,2
439,144,53,0.231256410737148,2
440,138,53,0.150567941730704,1
440,139,53,0.199271101482764,1
440,140,53,0.271763907937316,2
440,141,53,0.324307197577847,2
440,142,53,0.332998360000712,2
440,143,53,0.261901017982898,2
441,137,53,0.171752145203297,1
441,138,53,0.228986231335905,2
441,139,53,0.247213075261053,2
441,140,53,0.253495138368286,1
441,141,53,0.250892498032557,2
441,142,53,0.284117746427864,2
441,143,53,0.288974431858063,2
441,144,53,0.248765666647415,2
441,145,53,0.219875576936901,2
441,146,53,0.234287140161385,2
441,147,53,0.257968816554015,2
441,148,53,0.261990616381395,2
442,136,53,0.133069296776936,1
442,137,53,0.28839230135889,2
442,138,53,0.395019106316744,2
442,139,53,0.311973521082334,2
442,140,53,0.213894601192441,2
442,142,53,0.278338555509882,2
442,143,53,0.350486252675586,2
442,144,53,0.332393005521278,2
442,145,53,0.316784394502785,2
442,146,53,0.358073522316549,2
442,147,53,0.366615683827508,2
442,148,53,0.314319755485876,2
442,149,53,0.266959205594784,2
442,152,53,0.2896634491954,3
443,136,53,0.158412594783753,2
443,137,53,0.355805933825883,2
443,138,53,0.483043715068048,2
443,139,53,0.352697288654478,2
443,140,53,0.219006679744327,2
443,142,53,0.267213044170126,2
443,143,53,0.335488955230855,2
443,144,53,0.323312711883489,2
443,145,53,0.319509043172955,2
443,146,53,0.338023548833341,2
443,147,53,0.293691349439501,2
443,148,53,0.225263516804034,2
444,136,53,0.145039751163295,1
444,137,53,0.251355399537725,2
444,138,53,0.349229048648727,2
444,139,53,0.338007956262415,2
444,140,53,0.287821924172244,2
444,141,53,0.251028049763195,2
444,142,53,0.290539506722659,2
444,143,53,0.344244042483773,2
444,144,53,0.309257375309602,2
444,145,53,0.296941976510522,2
444,146,53,0.296060666500911,2
444,147,53,0.210771352706875,2
445,137,53,0.168567998542307,1
445,138,53,0.228510987674897,2
445,139,53,0.344549322410934,2
445,140,53,0.391422168716517,2
445,141,53,0.33515771909046,2
445,142,53,0.329324637232478,2
445,143,53,0.347407190992224,2
445,144,53,0.285428982717119,2
445,145,53,0.266572900827763,2
445,146,53,0.274575281450616,2
446,139,53,0.283873871081377,2
446,140,53,0.381299457538697,2
446,141,53,0.409198759490859,2
446,142,53,0.429483799224592,2
446,143,53,0.386429460481029,2
446,144,53,0.272867141214707,2
446,145,53,0.229725653660829,2
447,140,53,0.25838967464664,2
447,141,53,0.360177129721428,2
447,142,53,0.445709023406663,2
447,143,53,0.401200241680139,2
447,144,53,0.266068215001108,2
448,141,53,0.249034909363824,2
448,142,53,0.294282830770483,2
448,143,53,0.275032129646527,2
449,130,53,0.234715982969332,2
449,131,53,0.273399596892,2
449,132,53,0.23347849341659,2
449,136,53,0.234744082572226,2
449,137,53,0.180313208584601,2
449,138,53,0.185164653309314,2
449,139,53,0.232055706650133,2
449,140,53,0.280913143350183,2
449,141,53,0.323539487220169,2
449,142,53,0.328091198921729,2
449,143,53,0.249941845834414,2
450,129,53,0.299706407434915,2
450,130,53,0.344341272291606,2
450,131,53,0.366039041348012,2
450,132,53,0.311290133087068,2
450,133,53,0.227375368015294,2
450,135,53,0.258399637875495,2
450,136,53,0.283891771918091,2
450,137,53,0.339777336202869,2
450,138,53,0.362572426549805,2
450,139,53,0.379701478109773,2
450,140,53,0.408242666380504,2
450,141,53,0.48116577597442,2
450,142,53,0.491625564618299,2
450,143,53,0.323624681070685,2
450,144,53,0.172224162002949,2
451,128,53,0.196598706768184,2
451,129,53,0.328580245069992,2
451,130,53,0.368516705579003,2
451,131,53,0.382766431107358,2
451,132,53,0.358384172494724,2
451,133,53,0.272698308060021,2
451,134,53,0.251373983432681,2
451,135,53,0.285549059645494,2
451,136,53,0.405287473776452,2
451,137,53,0.553686776246796,2
451,138,53,0.573501919016803,2
451,139,53,0.527325909887753,2
451,140,53,0.447482619465238,2
451,141,53,0.433747542992392,2
451,142,53,0.42651569917512,2
451,143,53,0.273914858344555,2
452,129,53,0.238515482669211,2
452,130,53,0.263297636552529,2
452,131,53,0.27429595773669,2
452,132,53,0.316257968581017,2
452,133,53,0.334534864187765,2
452,134,53,0.36856550891278,2
452,135,53,0.410088760827769,2
452,136,53,0.484703593706028,2
452,137,53,0.550401030560591,2
452,138,53,0.539401249045014,2
452,139,53,0.519697232785024,2
452,140,53,0.411812705618196,2
452,141,53,0.287967392024273,2
452,142,53,0.2378112731744,2
453,131,53,0.248856348517608,2
453,132,53,0.382633635163424,2
453,133,53,0.469975962944891,2
453,134,53,0.472512699937036,2
453,135,53,0.44251207529205,2
453,136,53,0.425239840592107,2
453,137,53,0.409922518583659,2
453,138,53,0.417969839728156,2
453,139,53,0.508221430335267,2
453,140,53,0.458965912001936,2
453,141,53,0.243767776590774,2
454,130,53,0.231442273240444,2
454,131,53,0.314214046334337,2
454,132,53,0.474593766419896,2
454,133,53,0.539974075819842,2
454,134,53,0.441479197013688,2
454,135,53,0.348989884048743,2
454,136,53,0.338151186509854,2
454,137,53,0.324124561935906,2
454,138,53,0.340797707449264,2
454,139,53,0.499587150176432,2
454,140,53,0.513042832274153,2
454,141,53,0.25506047232394,2
455,130,53,0.30360944934294,2
455,131,53,0.331448076880137,2
455,132,53,0.396170106563681,2
455,133,53,0.428021442187505,2
455,134,53,0.359228927111467,2
455,135,53,0.336860936596273,2
455,136,53,0.388279700385217,2
455,137,53,0.345299320361759,2
455,138,53,0.268512927560307,2
455,139,53,0.327969355463415,2
455,140,53,0.343933062553343,2
455,141,53,0.18663299299446,2
456,128,53,0.190544726229785,1
456,129,53,0.256300411464864,2
456,130,53,0.327476281626892,2
456,131,53,0.29560035590632,2
456,132,53,0.262021401109795,2
456,133,53,0.266830296016715,2
456,134,53,0.306788897034293,2
456,135,53,0.391151512776157,2
456,136,53,0.436691618234697,2
456,137,53,0.338175870821532,2
456,138,53,0.204438178000079,2
456,139,53,0.167440080953237,2
456,140,53,0.158342510652647,2
457,129,53,0.224451996503872,1
457,130,53,0.2630087500232,2
457,131,53,0.270565823779076,2
457,133,53,0.21632266126275,2
457,134,53,0.302405123445583,2
457,135,53,0.413356181710074,2
457,136,53,0.381962942629985,2
457,137,53,0.267799037481431,2
458,134,53,0.266670719478909,2
458,135,53,0.367989408169132,2
458,136,53,0.335322265465828,2
458,137,53,0.254945506555522,2
459,134,53,0.241508479013954,2
459,135,53,0.296311961273141,2
459,136,53,0.263889777388021,2
459,137,53,0.226026704845069,2
460,135,53,0.261619762862905,2
437,142,54,0.180355181335947,2
437,143,54,0.211940088914398,2
437,144,54,0.244754489553401,2
438,141,54,0.250877329428815,2
438,142,54,0.341982860608351,2
438,143,54,0.311576640689412,2
438,144,54,0.25028141999612,2
439,140,54,0.279546226037257,2
439,141,54,0.359870954752432,2
439,142,54,0.434901063488709,2
439,143,54,0.362891815162744,2
439,144,54,0.258414288297121,2
439,147,54,0.280577926628993,3
439,148,54,0.288781456127546,3
440,139,54,0.27589568014182,2
440,140,54,0.349084876251987,2
440,141,54,0.355873674360603,2
440,142,54,0.344142714326482,2
440,143,54,0.281292217121321,2
440,144,54,0.221773984224087,2
440,148,54,0.268945962932643,3
441,137,54,0.146857086503155,1
441,138,54,0.210275805728437,2
441,139,54,0.26406285021456,2
441,140,54,0.30244813256116,2
441,141,54,0.287402502857303,2
441,142,54,0.293839761508095,2
441,143,54,0.291873095504073,2
441,144,54,0.256726380717445,2
441,145,54,0.23319024283804,2
441,146,54,0.237249587315053,2
441,147,54,0.245635846670477,2
441,152,54,0.268529203189477,3
442,136,54,0.121310955528763,1
442,137,54,0.244260732658635,2
442,138,54,0.361411415966548,2
442,139,54,0.301321651749774,2
442,140,54,0.218872776774965,2
442,142,54,0.274615864531744,2
442,143,54,0.357601858822884,2
442,144,54,0.343766419895781,2
442,145,54,0.316881482988222,2
442,146,54,0.361813124874635,2
442,147,54,0.37046339801785,2
442,148,54,0.283973055849009,2
442,151,54,0.26580243468338,3
442,152,54,0.335140948832908,3
442,153,54,0.331812877089369,3
443,136,54,0.141536981385674,2
443,137,54,0.324845847886792,2
443,138,54,0.491684166304803,2
443,139,54,0.374640299173858,2
443,140,54,0.222021957920032,2
443,141,54,0.1826972585057,1
443,142,54,0.255051309921991,2
443,143,54,0.347907707808222,2
443,144,54,0.337559940716197,2
443,145,54,0.287722127007567,2
443,146,54,0.310805161734531,2
443,147,54,0.32915644002857,2
443,148,54,0.265924655001414,2
443,152,54,0.22703975088065,3
444,136,54,0.127677364552141,1
444,137,54,0.226451496411024,2
444,138,54,0.354707788154715,2
444,139,54,0.354508829776139,2
444,140,54,0.297208816746214,2
444,141,54,0.256323753213789,2
444,142,54,0.310413934237414,2
444,143,54,0.393894392035296,2
444,144,54,0.35396855425965,2
444,145,54,0.267883359843844,2
444,146,54,0.243177213855361,2
444,147,54,0.225741374929351,2
445,137,54,0.141052351562258,1
445,138,54,0.20786272583201,2
445,139,54,0.318112777909312,2
445,140,54,0.371628012322182,2
445,141,54,0.32592790635865,2
445,142,54,0.322956108373173,2
445,143,54,0.362251059423335,2
445,144,54,0.317134662059054,2
445,145,54,0.275083076369963,2
446,139,54,0.246516073208392,2
446,140,54,0.339495515793296,2
446,141,54,0.353839008730803,2
446,142,54,0.345086465280997,2
446,143,54,0.33006394178874,2
446,144,54,0.2649933639714,2
447,140,54,0.230406992481366,2
447,141,54,0.315145831992733,2
447,142,54,0.36477123814152,2
447,143,54,0.348391148168146,2
447,144,54,0.248297748197221,2
448,141,54,0.23230968654787,2
448,142,54,0.264244897013189,2
448,143,54,0.256580064931046,2
449,130,54,0.216561449003013,2
449,131,54,0.273527964734221,2
449,132,54,0.28263989103478,2
449,138,54,0.140416765867137,2
449,139,54,0.170639337333636,2
449,140,54,0.228068860561809,2
449,141,54,0.282975625938086,2
449,142,54,0.279576681013402,2
449,143,54,0.23366522740799,2
450,129,54,0.304126783523957,2
450,130,54,0.365673722956664,2
450,131,54,0.378670437022548,2
450,132,54,0.32206907480656,2
450,133,54,0.237679584255894,2
450,134,54,0.238347756539953,2
450,135,54,0.250746653320808,2
450,136,54,0.232512578399776,2
450,137,54,0.267978352047088,2
450,138,54,0.280376518662235,2
450,139,54,0.300845418832001,2
450,140,54,0.35003993299811,2
450,141,54,0.407917200904576,2
450,142,54,0.420475532900843,2
450,143,54,0.326121918453398,2
450,144,54,0.194937626889846,2
451,128,54,0.201495209783203,2
451,129,54,0.349656219141666,2
451,130,54,0.442654386943921,2
451,131,54,0.418514873098613,2
451,132,54,0.362901542854273,2
451,133,54,0.293793902390883,2
451,134,54,0.283079898311942,2
451,135,54,0.309616098655845,2
451,136,54,0.35175594018068,2
451,137,54,0.472044310412191,2
451,138,54,0.494052023034797,2
451,139,54,0.472067769929779,2
451,140,54,0.42961494640725,2
451,141,54,0.409355250489706,2
451,142,54,0.42406592256343,2
451,143,54,0.322372211344062,2
451,144,54,0.193914723617205,2
452,129,54,0.259101986625437,2
452,130,54,0.317763570271006,2
452,131,54,0.295691885710883,2
452,132,54,0.337831797896915,2
452,133,54,0.404367464984315,2
452,134,54,0.445111418105227,2
452,135,54,0.470935965974843,2
452,136,54,0.43405270515089,2
452,137,54,0.485837281959565,2
452,138,54,0.530261976861002,2
452,139,54,0.556655630015709,2
452,140,54,0.459844230687517,2
452,141,54,0.308560632347999,2
452,142,54,0.261870021270905,2
452,143,54,0.199214148557536,2
453,130,54,0.226077109832656,2
453,131,54,0.265152163236034,2
453,132,54,0.399485011770742,2
453,133,54,0.518432727101085,2
453,134,54,0.51368806322274,2
453,135,54,0.480464063175256,2
453,136,54,0.396818399497495,2
453,137,54,0.38855198153312,2
453,138,54,0.447803798161848,2
453,139,54,0.553609802648928,2
453,140,54,0.49196808299657,2
453,141,54,0.26538442659239,2
453,142,54,0.164219131585188,2
454,130,54,0.248908802679925,2
454,131,54,0.34068297721817,2
454,132,54,0.481931931785753,2
454,133,54,0.52741494299667,2
454,134,54,0.423337075864405,2
454,135,54,0.364224579563519,2
454,136,54,0.354335686288402,2
454,137,54,0.347422830670615,2
454,138,54,0.348964563786287,2
454,139,54,0.44221054040836,2
454,140,54,0.448984735202815,2
454,141,54,0.248589673158044,2
455,128,54,0.193039678900444,1
455,129,54,0.238315252389079,2
455,130,54,0.303039637445875,2
455,131,54,0.355867833034939,2
455,132,54,0.415353491120102,2
455,133,54,0.417595429596056,2
455,134,54,0.338490030505852,2
455,135,54,0.337353233159623,2
455,136,54,0.396391747186672,2
455,137,54,0.348575738769887,2
455,138,54,0.252590415948553,2
455,139,54,0.265269107517984,2
455,140,54,0.301206403336565,2
456,127,54,0.176177538237365,1
456,128,54,0.228038334924466,1
456,129,54,0.278959196361721,2
456,130,54,0.320488878445687,2
456,131,54,0.307548975982636,2
456,132,54,0.281093070312885,2
456,133,54,0.268035092988723,2
456,134,54,0.272862854435389,2
456,135,54,0.331908552350856,2
456,136,54,0.389468975447495,2
456,137,54,0.3124412746564,2
456,138,54,0.191418416606927,2
457,128,54,0.223697970864787,1
457,129,54,0.24473866144515,1
457,130,54,0.264946656919818,2
457,131,54,0.274391750766839,2
457,132,54,0.25656645087365,2
457,134,54,0.25939699712522,2
457,135,54,0.337397160870768,2
457,136,54,0.349153323398683,2
457,137,54,0.290580984845623,2
457,138,54,0.215176230439921,2
458,129,54,0.197776522939592,1
458,130,54,0.209653892975043,1
458,134,54,0.256483871487444,2
458,135,54,0.374767701313045,2
458,136,54,0.379994510096025,2
458,137,54,0.325460906504024,2
458,138,54,0.305489508272495,2
459,134,54,0.244071973046239,2
459,135,54,0.348903253420544,2
459,136,54,0.345929547582732,2
459,137,54,0.28528332643523,2
459,138,54,0.309119020684794,2
460,135,54,0.295081420071492,2
460,136,54,0.259222840826985,2
460,137,54,0.191763337465914,2
436,144,55,0.288922166125606,2
437,142,55,0.193316470588124,2
437,143,55,0.240349470497961,2
437,144,55,0.316346530615283,2
437,145,55,0.300070171279916,2
438,140,55,0.169168689382703,2
438,141,55,0.263364411384216,2
438,142,55,0.379309779538006,2
438,143,55,0.352739379174487,2
438,144,55,0.280375976926387,2
438,145,55,0.25844731063011,2
438,147,55,0.24919710036594,3
438,148,55,0.196757953553735,3
439,138,55,0.305075975390683,2
439,139,55,0.305668493085896,2
439,140,55,0.289602562796842,2
439,141,55,0.343116407539493,2
439,142,55,0.450931404087929,2
439,143,55,0.414299178945149,2
439,144,55,0.272697978307766,2
439,146,55,0.242225195540732,3
439,147,55,0.330681944622537,3
439,148,55,0.337424341878094,3
439,149,55,0.235105962118626,3
440,138,55,0.247250549249489,2
440,139,55,0.338133073689548,2
440,140,55,0.370848430883315,2
440,141,55,0.338793661671737,2
440,142,55,0.333236841542453,2
440,143,55,0.307171291881716,2
440,144,55,0.243793591481614,2
440,147,55,0.264255119333102,3
440,148,55,0.32251047175394,3
440,149,55,0.30504815843258,3
441,138,55,0.20087508711348,1
441,139,55,0.268476395721172,2
441,140,55,0.31209595338396,2
441,141,55,0.285313145460597,2
441,142,55,0.273438060137201,2
441,143,55,0.277469469887448,2
441,144,55,0.267746394889255,2
441,145,55,0.25748245553126,2
441,146,55,0.24787879795693,2
441,147,55,0.241912449080363,2
441,148,55,0.238751161316782,3
441,149,55,0.259812084553377,3
441,150,55,0.257978190939557,3
441,151,55,0.267310909928737,3
441,152,55,0.275291950869929,3
442,137,55,0.201218641855981,1
442,138,55,0.29989403646815,2
442,139,55,0.267558600979892,2
442,140,55,0.212043725337476,2
442,142,55,0.250822590554445,2
442,143,55,0.330363239067841,2
442,144,55,0.333238749394787,2
442,145,55,0.306547565490918,2
442,146,55,0.333702192635803,2
442,147,55,0.338896191069386,2
442,148,55,0.262706084560349,2
442,150,55,0.25146631406415,3
442,151,55,0.314606663501673,3
442,152,55,0.365100354445988,3
442,153,55,0.293779534614047,3
443,136,55,0.119837068939608,1
443,137,55,0.25408916350238,2
443,138,55,0.414445636053943,2
443,139,55,0.349544927755521,2
443,140,55,0.217711860406637,2
443,142,55,0.238000503861446,2
443,143,55,0.357014899808546,2
443,144,55,0.362667348091851,2
443,145,55,0.286111970298932,2
443,146,55,0.299668273941969,2
443,147,55,0.348619760695962,2
443,148,55,0.310485985105185,2
443,149,55,0.252888417772365,2
443,151,55,0.232671895846525,3
443,152,55,0.262620631618775,3
444,137,55,0.184152290331975,2
444,138,55,0.316276599583438,2
444,139,55,0.34674309350389,2
444,140,55,0.296188586822214,2
444,141,55,0.236409213692557,2
444,142,55,0.290793015545746,2
444,143,55,0.405897091481472,2
444,144,55,0.396393113303158,2
444,145,55,0.27547112411319,2
444,146,55,0.235043262082664,2
444,147,55,0.256322881725686,2
444,148,55,0.272160482131715,2
444,149,55,0.264656569150131,3
445,138,55,0.178734083918557,2
445,139,55,0.272619261733692,2
445,140,55,0.327102366123175,2
445,141,55,0.290097568039432,2
445,142,55,0.285728209335023,2
445,143,55,0.336403664433176,2
445,144,55,0.333145735705075,2
445,145,55,0.27325851003422,2
446,139,55,0.188321654293577,1
446,140,55,0.263527685858028,2
446,141,55,0.273579264763644,2
446,142,55,0.258836583167429,2
446,143,55,0.274295486662039,2
446,144,55,0.27958405333168,2
447,141,55,0.242960119102746,2
447,142,55,0.263222217501007,2
447,143,55,0.277902387491121,2
449,130,55,0.178907309844358,2
449,131,55,0.232617463170677,2
449,132,55,0.305366863987276,2
449,141,55,0.250393677085299,2
449,142,55,0.269331278442899,2
449,143,55,0.227059441801035,2
450,129,55,0.255216021173487,2
450,130,55,0.319633783740369,2
450,131,55,0.323709144755493,2
450,132,55,0.293699734568278,2
450,133,55,0.241426512024793,2
450,134,55,0.228814877931839,2
450,135,55,0.218055462256604,2
450,136,55,0.185729106732231,2
450,137,55,0.199492506568429,2
450,138,55,0.205800549442629,2
450,139,55,0.21274581499636,2
450,140,55,0.260065192963012,2
450,141,55,0.317932638963018,2
450,142,55,0.34725793098926,2
450,143,55,0.301925310360467,2
450,144,55,0.207028452626236,2
451,128,55,0.179787395059878,2
451,129,55,0.307459848658789,2
451,130,55,0.430979885206645,2
451,131,55,0.375878518892308,2
451,132,55,0.304863732706967,2
451,133,55,0.281769109543605,2
451,134,55,0.290369660757475,2
451,135,55,0.313925348234869,2
451,136,55,0.291871187651739,2
451,137,55,0.345765189637224,2
451,138,55,0.375901884194965,2
451,139,55,0.377254669268381,2
451,140,55,0.371689275580461,2
451,141,55,0.352981276007443,2
451,142,55,0.384213619540704,2
451,143,55,0.348047687640575,2
451,144,55,0.246072933284806,2
452,129,55,0.248278057276836,2
452,130,55,0.340033718581323,2
452,131,55,0.292931718012076,2
452,132,55,0.307031359156829,2
452,133,55,0.403442745445674,2
452,134,55,0.445815533385108,2
452,135,55,0.469773353737775,2
452,136,55,0.371479741575984,2
452,137,55,0.385970586664122,2
452,138,55,0.481777937482553,2
452,139,55,0.558106115971607,2
452,140,55,0.490640641739343,2
452,141,55,0.322989060044965,2
452,142,55,0.282011100591491,2
452,143,55,0.259690759277179,2
453,130,55,0.253503382174667,2
453,131,55,0.268207553418217,2
453,132,55,0.353169588098921,2
453,133,55,0.481578343153198,2
453,134,55,0.472254833673434,2
453,135,55,0.44613383852635,2
453,136,55,0.35075208010078,2
453,137,55,0.355118494588624,2
453,138,55,0.456976799290825,2
453,139,55,0.572328000988126,2
453,140,55,0.513873713742444,2
453,141,55,0.295682841077596,2
453,142,55,0.194168467977617,2
454,128,55,0.155402875288922,1
454,129,55,0.186810717683172,1
454,130,55,0.248867277449496,2
454,131,55,0.323030820812719,2
454,132,55,0.416766715071157,2
454,133,55,0.466281842644297,2
454,134,55,0.390408675160017,2
454,135,55,0.361308132849458,2
454,136,55,0.357456343863391,2
454,137,55,0.370066611839858,2
454,138,55,0.361529867687379,2
454,139,55,0.38406388846309,2
454,140,55,0.374401464326129,2
454,141,55,0.25425625368086,2
455,127,55,0.179073210559346,1
455,128,55,0.214196371613456,1
455,129,55,0.246699439016042,1
455,130,55,0.282633790618058,2
455,131,55,0.341508959510097,2
455,132,55,0.386857573123269,2
455,133,55,0.368763525142055,2
455,134,55,0.306715197405245,2
455,135,55,0.3264125244052,2
455,136,55,0.37855855679309,2
455,137,55,0.357526887292281,2
455,138,55,0.264783335338541,2
455,139,55,0.226129540441241,2
455,140,55,0.257518798940534,2
456,127,55,0.202318577610821,1
456,128,55,0.270489792330509,1
456,129,55,0.302637174818347,2
456,130,55,0.298387021554209,2
456,131,55,0.305028632388323,2
456,132,55,0.292972866382785,2
456,133,55,0.254066693241558,2
456,134,55,0.233098783694674,2
456,135,55,0.27725795736944,2
456,136,55,0.333963780389143,2
456,137,55,0.296817754125224,2
456,138,55,0.203348864978605,2
457,127,55,0.190348770952105,1
457,128,55,0.243585188056298,1
457,129,55,0.260769449565288,1
457,130,55,0.253904737776767,2
457,131,55,0.261018671609056,2
457,132,55,0.249346383922637,2
457,135,55,0.26982807376916,2
457,136,55,0.331789205588189,2
457,137,55,0.322159568246893,2
457,138,55,0.255042383057367,2
458,128,55,0.195463228430976,1
458,129,55,0.215822450645273,1
458,130,55,0.208434304259014,1
458,134,55,0.237391828305726,2
458,135,55,0.338927682409762,2
458,136,55,0.4011214779986,2
458,137,55,0.386183488852348,2
458,138,55,0.356646024803588,2
458,139,55,0.278748790869141,2
459,134,55,0.248823067093561,2
459,135,55,0.356530046224671,2
459,136,55,0.397315383253616,2
459,137,55,0.332618061435483,2
459,138,55,0.317397474606485,2
459,139,55,0.287569593035783,2
460,129,55,0.291073516946298,4
460,134,55,0.250951900545966,2
460,135,55,0.300025607617993,2
460,136,55,0.311705220515226,2
460,137,55,0.23164019525479,2
460,138,55,0.183113276306292,2
461,129,55,0.266025983158704,4
461,135,55,0.215335171026949,2
461,136,55,0.2102220325571,2
462,128,55,0.302716315359606,4
462,129,55,0.295936632545474,4
436,144,56,0.313456440527909,2
436,145,56,0.28825851615819,2
437,142,56,0.177162237355862,2
437,143,56,0.233629826148016,2
437,144,56,0.341908124615073,2
437,145,56,0.371288014193291,2
437,146,56,0.238893896935838,2
438,138,56,0.226800185867214,2
438,139,56,0.166519059350601,2
438,141,56,0.230976969254559,2
438,142,56,0.338120213351593,2
438,143,56,0.327229485617573,2
438,144,56,0.276216552639907,2
438,145,56,0.303035421327754,2
438,146,56,0.277622239396557,2
438,147,56,0.23866872325297,3
438,148,56,0.175001241281704,3
439,137,56,0.262099999915207,2
439,138,56,0.361891299712861,2
439,139,56,0.330755856235177,2
439,140,56,0.259804358929112,2
439,141,56,0.28592952308685,2
439,142,56,0.397437956877638,2
439,143,56,0.392211336524519,2
439,144,56,0.250646337974015,2
439,145,56,0.224368663398225,2
439,146,56,0.274830297712584,3
439,147,56,0.343013972356774,3
439,148,56,0.326184783365487,3
439,149,56,0.226584669214678,3
440,137,56,0.18669094695332,2
440,138,56,0.313349883441999,2
440,139,56,0.37978021823758,2
440,140,56,0.339822936229023,2
440,141,56,0.279770363355894,2
440,142,56,0.286194667453801,2
440,143,56,0.29572844110375,2
440,144,56,0.234041121425238,2
440,146,56,0.2454686858308,3
440,147,56,0.317144766610304,3
440,148,56,0.3516629500447,3
440,149,56,0.319742366447275,3
440,150,56,0.231813880478374,3
440,151,56,0.172535259702042,3
441,138,56,0.210340248740605,2
441,139,56,0.272649504726245,2
441,140,56,0.28613926907492,2
441,141,56,0.243719232348056,1
441,142,56,0.221813766478309,2
441,143,56,0.236946497885016,2
441,147,56,0.272627811738596,2
441,148,56,0.270194852491924,3
441,149,56,0.291491101070103,3
441,150,56,0.308215311075559,3
441,151,56,0.312280496878235,3
441,152,56,0.268160493060646,3
442,138,56,0.231215898317218,1
442,139,56,0.225847036973425,1
442,143,56,0.263959967510923,2
442,144,56,0.279028067475602,2
442,145,56,0.267845673871816,2
442,146,56,0.281307903907178,2
442,147,56,0.29446242798093,2
442,148,56,0.254797212255591,2
442,149,56,0.253511107798933,3
442,150,56,0.30115526818327,3
442,151,56,0.365358738891706,3
442,152,56,0.364573221912245,3
442,153,56,0.244043991212008,3
443,137,56,0.183198470156809,1
443,138,56,0.300368502855984,2
443,139,56,0.287924594892288,2
443,140,56,0.197984243306665,1
443,142,56,0.206228520762474,2
443,143,56,0.32633496196402,2
443,144,56,0.342489972469455,2
443,145,56,0.275975715724915,2
443,146,56,0.283899544649821,2
443,147,56,0.326555236470524,2
443,148,56,0.312363194033105,2
443,149,56,0.285117696588166,2
443,150,56,0.250067363675,3
443,151,56,0.260352289408668,3
443,152,56,0.278371130321954,3
444,138,56,0.251327229273634,2
444,139,56,0.304755150000061,2
444,140,56,0.263270526206401,1
444,142,56,0.234865478509622,2
444,143,56,0.362088915528684,2
444,144,56,0.384590008186335,2
444,145,56,0.285723828340774,2
444,146,56,0.256304015185939,2
444,147,56,0.274714130703807,2
444,148,56,0.296950997590076,2
444,149,56,0.318647965819577,3
444,150,56,0.269957218884554,3
445,139,56,0.218095480048151,1
445,140,56,0.258842848460278,2
445,142,56,0.220593683133898,2
445,143,56,0.275352601731162,2
445,144,56,0.309600411869988,2
445,145,56,0.261260898194267,2
445,149,56,0.281255449744861,3
445,150,56,0.308559949289756,3
446,144,56,0.275994700033324,2
449,142,56,0.277797055199303,2
450,130,56,0.251329325555828,2
450,131,56,0.248740205062564,2
450,132,56,0.241357476034784,2
450,139,56,0.138955233210687,2
450,140,56,0.172739046595784,2
450,141,56,0.2446823444707,2
450,142,56,0.306753801972842,2
450,143,56,0.272364692992642,2
451,129,56,0.244590202269091,2
451,130,56,0.362102034957696,2
451,131,56,0.311496746428712,2
451,132,56,0.241106322584949,2
451,133,56,0.250617955726332,2
451,134,56,0.270431167090273,2
451,135,56,0.279542198348996,2
451,136,56,0.223690551439044,2
451,137,56,0.224239117869378,2
451,138,56,0.253582758253251,2
451,139,56,0.274410075570738,2
451,140,56,0.283998705863721,2
451,141,56,0.282137843226168,2
451,142,56,0.324779143716302,2
451,143,56,0.347141905302878,2
451,144,56,0.283179813245281,2
452,129,56,0.221033737518524,2
452,130,56,0.339199987111398,2
452,131,56,0.304276467494106,2
452,132,56,0.269408228487034,2
452,133,56,0.348751237630875,2
452,134,56,0.389118331031506,2
452,135,56,0.400781880283161,2
452,136,56,0.294797526933458,2
452,137,56,0.282033335314987,2
452,138,56,0.385062496060638,2
452,139,56,0.485634013247938,2
452,140,56,0.458003883350988,2
452,141,56,0.319769005718752,2
452,142,56,0.284894925386015,2
452,143,56,0.323670233989374,2
453,130,56,0.268872192642398,2
453,131,56,0.277424105398619,2
453,132,56,0.294403732079496,2
453,133,56,0.394105080172666,2
453,134,56,0.396458310034766,2
453,135,56,0.380805088246885,2
453,136,56,0.302638564488565,2
453,137,56,0.303896145375145,2
453,138,56,0.402374489461071,2
453,139,56,0.516858913801724,2
453,140,56,0.501761630762456,2
453,141,56,0.332859652069916,2
453,142,56,0.222200495212515,2
454,128,56,0.143789495487529,1
454,129,56,0.174371332036119,1
454,130,56,0.232556623879584,1
454,131,56,0.27809173594683,2
454,132,56,0.328846920429556,2
454,133,56,0.385845375022058,2
454,134,56,0.357520174478513,2
454,135,56,0.353393254342908,2
454,136,56,0.34719525450703,2
454,137,56,0.352280905771032,2
454,138,56,0.328365034615979,2
454,139,56,0.314895267386211,2
454,140,56,0.317128326105007,2
454,141,56,0.270450174952414,2
455,127,56,0.175888475055043,1
455,128,56,0.212508487587513,1
455,129,56,0.237699298730011,1
455,130,56,0.260269168286614,2
455,131,56,0.301668080047643,2
455,132,56,0.331000650177232,2
455,133,56,0.305662722421429,2
455,134,56,0.265738462745862,2
455,135,56,0.291603593696607,2
455,136,56,0.331777452275663,2
455,137,56,0.339857937075544,2
455,138,56,0.265680402795206,2
455,139,56,0.196388195283808,2
455,140,56,0.217129517923872,2
455,142,56,0.281456857711619,2
456,126,56,0.141377864145651,1
456,127,56,0.204582350396819,1
456,128,56,0.275064845780994,1
456,129,56,0.29378050031708,1
456,130,56,0.27591214420085,2
456,131,56,0.290623028258167,2
456,132,56,0.294324285339714,2
456,133,56,0.233883005218848,2
456,135,56,0.220333602819438,2
456,136,56,0.274041600979232,2
456,137,56,0.280988939261425,2
456,138,56,0.22411086779582,2
456,141,56,0.314557506861909,2
456,142,56,0.269700247662787,2
457,127,56,0.180923167818743,1
457,128,56,0.236745655207839,1
457,129,56,0.2522483450912,1
457,130,56,0.235297077104274,1
457,131,56,0.234565003543895,1
457,135,56,0.216819527250208,2
457,136,56,0.307721459965862,2
457,137,56,0.333278319665416,2
457,138,56,0.279456604085027,2
457,139,56,0.243594162028387,2
457,140,56,0.261085093134756,2
457,141,56,0.27797384951558,2
458,128,56,0.191347213673526,1
458,129,56,0.22262790124278,1
458,130,56,0.208446457984993,1
458,134,56,0.222502524724589,2
458,135,56,0.287343265220022,2
458,136,56,0.391895268987865,2
458,137,56,0.414055397813592,2
458,138,56,0.365405163298499,2
458,139,56,0.294382203967975,2
459,129,56,0.287537442190897,4
459,134,56,0.267740600671055,2
459,135,56,0.338341076701411,2
459,136,56,0.423096592255401,2
459,137,56,0.384955185255288,2
459,138,56,0.3121025013216,2
459,139,56,0.250562227595195,2
460,128,56,0.235999096101961,4
460,129,56,0.326467640139291,4
460,130,56,0.270060030926993,4
460,134,56,0.245429657296018,2
460,135,56,0.290473297180552,2
460,136,56,0.356868513360949,2
460,137,56,0.292460054518411,2
460,138,56,0.201378453931113,2
461,128,56,0.271310098172899,4
461,129,56,0.308218867689169,4
461,130,56,0.238816193172263,4
461,135,56,0.216708918922306,2
461,136,56,0.246854187038682,2
461,137,56,0.195395134590267,2
462,127,56,0.250489894082633,4
462,128,56,0.333582092153696,4
462,129,56,0.322854874430812,4
462,130,56,0.22198601492421,4
463,128,56,0.228848065140956,4
463,129,56,0.236998316096555,4
435,145,57,0.194139579324684,2
436,144,57,0.305017114613122,2
436,145,57,0.329984683478818,2
436,146,57,0.213271534306153,2
437,143,57,0.210082288262073,2
437,144,57,0.306759572637309,2
437,145,57,0.376540025470064,2
437,146,57,0.265573468849576,2
438,142,57,0.259050827918409,2
438,143,57,0.269627984811423,2
438,144,57,0.243718831934603,2
438,145,57,0.295359495437595,2
438,147,57,0.215443000014415,3
439,138,57,0.336393489220729,2
439,139,57,0.282929225085027,2
439,141,57,0.216402131556264,2
439,142,57,0.306441455925926,2
439,143,57,0.317559359410079,2
439,144,57,0.211184909142419,1
439,146,57,0.277863500278735,3
439,147,57,0.316281428098604,3
439,148,57,0.275766087505508,3
439,149,57,0.196973446652539,3
440,137,57,0.200021405632112,2
440,138,57,0.342528341499726,2
440,139,57,0.352852908165222,2
440,140,57,0.259593576576812,2
440,141,57,0.206223645139843,1
440,142,57,0.229580939528241,2
440,143,57,0.251393768567996,2
440,146,57,0.25952105463439,3
440,147,57,0.366568694131135,3
440,148,57,0.362762458063757,3
440,149,57,0.298958270228958,3
440,150,57,0.236607229921833,3
440,151,57,0.187695984719846,3
441,138,57,0.219944636480643,2
441,139,57,0.253618442158016,2
441,146,57,0.253637167375367,3
441,147,57,0.34130821104785,3
441,148,57,0.339842203182222,3
441,149,57,0.328340986255078,3
441,150,57,0.360848081345924,3
441,151,57,0.351172584887416,3
441,152,57,0.253793634820481,3
442,147,57,0.2663514250809,2
442,148,57,0.268182374478155,3
442,149,57,0.288575431629215,3
442,150,57,0.349495111611246,3
442,151,57,0.389336674131944,3
442,152,57,0.331435876046693,3
442,153,57,0.202900519680133,3
443,138,57,0.192086117816335,1
443,139,57,0.209249970016099,1
443,143,57,0.25972491218933,2
443,144,57,0.282847470079458,2
443,147,57,0.275076551986055,2
443,148,57,0.279309393256792,2
443,149,57,0.293218602474141,3
443,150,57,0.274062752231033,3
443,151,57,0.277737864669486,3
443,152,57,0.271641899602875,3
444,139,57,0.239283075258227,1
444,143,57,0.285390331042058,2
444,144,57,0.325589156577582,2
444,145,57,0.281217622450438,2
444,148,57,0.283653455252478,3
444,149,57,0.329045360626017,3
444,150,57,0.29510890727734,3
444,151,57,0.252402033195877,3
445,144,57,0.2588913220418,2
445,148,57,0.242164945092952,3
445,149,57,0.295268224724089,3
445,150,57,0.323010376172893,3
445,151,57,0.30373546181191,3
446,149,57,0.283545720479942,3
446,150,57,0.286774183488664,3
450,142,57,0.270562714686383,2
451,130,57,0.246537883964704,2
451,131,57,0.227400923815075,2
451,134,57,0.238687189379264,2
451,139,57,0.191014776292773,2
451,140,57,0.196330724176465,2
451,141,57,0.203816759875067,2
451,142,57,0.246097005199439,2
451,143,57,0.292633268667346,2
452,130,57,0.280636999390147,2
452,131,57,0.282267388755015,2
452,133,57,0.261780941054523,2
452,134,57,0.308573374917291,2
452,135,57,0.300710715035732,2
452,136,57,0.227806683965156,2
452,137,57,0.207439983440784,2
452,138,57,0.282406803297786,2
452,139,57,0.36171895705203,2
452,140,57,0.359973531257546,2
452,141,57,0.271175535699026,2
453,132,57,0.230199908065071,2
453,133,57,0.283749130513964,2
453,134,57,0.323054704297492,2
453,135,57,0.32421338306123,2
453,136,57,0.274637180659672,2
453,137,57,0.25536462167194,2
453,138,57,0.316107177585439,2
453,139,57,0.403112051041127,2
453,140,57,0.433286455124628,2
453,141,57,0.329453052182164,2
453,142,57,0.214261662559995,2
454,128,57,0.12926490967756,1
454,129,57,0.151788719910224,1
454,132,57,0.232121774869844,2
454,133,57,0.284778617054843,2
454,134,57,0.315758181930726,2
454,135,57,0.33714560700748,2
454,136,57,0.326265313576965,2
454,137,57,0.300892290759711,2
454,138,57,0.26695027873016,2
454,139,57,0.245536991655101,2
454,140,57,0.266775557142344,2
454,141,57,0.267223714010957,2
454,142,57,0.249521482370173,2
455,127,57,0.160154699501952,1
455,128,57,0.188495480839557,1
455,129,57,0.205534533587575,1
455,130,57,0.223369278527504,1
455,131,57,0.236492664566867,2
455,132,57,0.249724091577289,2
455,133,57,0.232369960549382,2
455,134,57,0.219238095166312,2
455,135,57,0.240630725617953,2
455,136,57,0.276870969544176,2
455,137,57,0.305386248709138,2
455,138,57,0.258468273452051,2
455,141,57,0.276491942880503,2
455,142,57,0.363183551693707,2
455,143,57,0.295099603552996,2
456,126,57,0.137186960295662,1
456,127,57,0.188302516885906,1
456,128,57,0.24383285555372,1
456,129,57,0.253943742757816,1
456,130,57,0.243604996745345,1
456,131,57,0.249623870445427,1
456,136,57,0.236432555441482,2
456,137,57,0.302184236542033,2
456,138,57,0.286778399606785,2
456,139,57,0.227656293383031,2
456,140,57,0.259789755614951,2
456,141,57,0.365028280024485,2
456,142,57,0.37876269699282,2
456,143,57,0.265987590574701,2
457,127,57,0.16563157826307,1
457,128,57,0.21766239756835,1
457,129,57,0.234670712695434,1
457,130,57,0.216877328109806,1
457,136,57,0.283393045185763,2
457,137,57,0.350680947828577,2
457,138,57,0.328898079136584,2
457,139,57,0.300993289164746,2
457,140,57,0.313664137341249,2
457,141,57,0.341092341089326,2
457,142,57,0.265658851129953,2
458,128,57,0.190549472306887,1
458,129,57,0.229414650176667,1
458,130,57,0.217616656219801,1
458,135,57,0.236515346811282,2
458,136,57,0.361447853590752,2
458,137,57,0.413069155925615,2
458,138,57,0.357994735081278,2
458,139,57,0.305855274184761,2
458,140,57,0.25282465781844,2
458,141,57,0.220036849343449,2
459,128,57,0.208180347915009,1
459,129,57,0.282229231708336,4
459,130,57,0.261500463207704,1
459,134,57,0.272581599315397,2
459,135,57,0.298156524727792,2
459,136,57,0.424255341680336,2
459,137,57,0.443652123053366,2
459,138,57,0.333640764501397,2
459,139,57,0.242269358789202,2
460,128,57,0.231096763538144,4
460,129,57,0.325567369375004,4
460,130,57,0.2905412025914,4
460,131,57,0.243569854576429,1
460,134,57,0.248853616284636,1
460,135,57,0.272270006987921,2
460,136,57,0.379949027838533,2
460,137,57,0.369832393523703,2
460,138,57,0.26080324917145,2
461,128,57,0.276834531919971,4
461,129,57,0.341408950361828,4
461,130,57,0.283114804943533,4
461,135,57,0.220877034536084,1
461,136,57,0.276382841991481,2
461,137,57,0.232172321179827,2
462,127,57,0.252243916989486,1
462,128,57,0.307380472580205,4
462,129,57,0.308021346088276,4
462,130,57,0.226786359826226,4
463,127,57,0.221512302255816,1
463,128,57,0.235994173371865,1
463,129,57,0.218000393629978,4
464,127,57,0.171779891500202,1
435,145,58,0.286249265005777,2
436,144,58,0.287555013275355,2
436,145,58,0.371518416804778,2
436,146,58,0.271878779490804,2
437,144,58,0.242796467769214,2
437,145,58,0.33630443255808,2
437,146,58,0.288985054591428,2
438,143,58,0.199529721465807,1
438,145,58,0.252160065701724,2
439,142,58,0.210335820638892,1
439,143,58,0.222312893624089,1
439,147,58,0.271811863336722,3
439,148,58,0.220444470238399,3
440,138,58,0.298302487208203,2
440,139,58,0.265637629216954,2
440,146,58,0.241233654062939,3
440,147,58,0.365208748723034,3
440,148,58,0.342768000728093,3
440,149,58,0.264243106929518,3
440,150,58,0.236087846566087,3
440,151,58,0.206876413282835,3
441,146,58,0.228291678871426,3
441,147,58,0.366377437823092,3
441,148,58,0.376083789671198,3
441,149,58,0.342963873567709,3
441,150,58,0.389570280051053,3
441,151,58,0.370110092030086,3
441,152,58,0.23464532177178,3
442,147,58,0.2331740614238,3
442,148,58,0.263105532310115,3
442,149,58,0.299416225450298,3
442,150,58,0.36629452868463,3
442,151,58,0.376553027130414,3
442,152,58,0.280656219235881,3
443,149,58,0.272168066433585,3
443,150,58,0.287524016563362,3
443,151,58,0.284343132094325,3
443,152,58,0.247033807802862,3
444,144,58,0.233358180950891,2
444,149,58,0.292657481904374,3
444,150,58,0.305374283413019,3
444,151,58,0.279896470039794,3
445,149,58,0.279938890312058,3
445,150,58,0.309899308735637,3
445,151,58,0.2903727934039,3
446,150,58,0.285063287466051,3
452,134,58,0.215806740305684,2
452,139,58,0.23473355405379,2
452,140,58,0.250493026729058,2
453,134,58,0.238579478160461,2
453,135,58,0.254452008751813,2
453,138,58,0.219852447171569,2
453,139,58,0.275959369434547,2
453,140,58,0.332057859461285,2
453,141,58,0.286916141834547,2
454,134,58,0.241018325840263,2
454,135,58,0.276048002130011,2
454,136,58,0.263321991111952,2
454,137,58,0.223194839584478,2
454,140,58,0.22021526886727,2
454,142,58,0.239398323671435,2
454,143,58,0.192220056116297,2
455,128,58,0.165681653498403,1
455,129,58,0.172269726698504,1
455,137,58,0.242987606308594,2
455,141,58,0.272725865927067,2
455,142,58,0.399759130109782,2
455,143,58,0.332147081000061,2
455,144,58,0.1531243814201,2
456,127,58,0.16938360541506,1
456,128,58,0.20415143486041,1
456,129,58,0.208305724433201,1
456,130,58,0.210646894784252,1
456,137,58,0.300392857415407,2
456,138,58,0.314056259880202,2
456,139,58,0.236925440848145,2
456,140,58,0.245573429279306,2
456,141,58,0.363479810541313,2
456,142,58,0.452770479522903,2
456,143,58,0.337768744554966,2
456,144,58,0.156854044303063,2
457,127,58,0.155636657861025,1
457,128,58,0.199443632573455,1
457,129,58,0.217501125161802,1
457,130,58,0.20183572609421,1
457,136,58,0.231903007802221,2
457,137,58,0.325158853438218,2
457,138,58,0.342046455686149,2
457,139,58,0.322037135945266,2
457,140,58,0.341820104316655,2
457,141,58,0.362062770885589,2
457,142,58,0.322178411232907,2
457,143,58,0.226448811285517,2
458,128,58,0.196241102224235,1
458,129,58,0.235211577055235,1
458,135,58,0.195706279396825,2
458,136,58,0.300915868045961,2
458,137,58,0.363678886688552,2
458,138,58,0.327316069138307,2
458,139,58,0.305073620017432,2
458,140,58,0.305636200918614,2
458,141,58,0.278178484343693,2
458,142,58,0.24644953391403,2
459,129,58,0.253123036501973,4
459,130,58,0.257937466536034,1
459,135,58,0.264408642561651,2
459,136,58,0.387709794273221,2
459,137,58,0.457565077314185,2
459,138,58,0.360238793393159,2
459,139,58,0.258715022353905,2
459,140,58,0.218876733802027,2
460,128,58,0.229671291646179,4
460,129,58,0.296727142916229,4
460,130,58,0.29531566194138,4
460,131,58,0.248485188800596,1
460,135,58,0.265589744478746,2
460,136,58,0.363861428115563,2
460,137,58,0.416099532043864,2
460,138,58,0.332084616501425,2
460,139,58,0.223035168831741,2
461,127,58,0.237231215403689,1
461,128,58,0.2777461320296,4
461,129,58,0.349646444342671,4
461,130,58,0.31966869037196,4
461,131,58,0.206708168971462,1
461,136,58,0.275388474065786,2
461,137,58,0.252076355736356,2
461,138,58,0.186547198523765,2
462,127,58,0.242336204282087,1
462,128,58,0.267431175286972,1
462,129,58,0.276084957936331,4
462,130,58,0.225247994894304,1
463,126,58,0.194130416922735,1
463,127,58,0.254245277641506,1
463,128,58,0.248912524169663,1
463,129,58,0.208003977565918,1
464,126,58,0.188301350976147,1
464,127,58,0.239440508406374,1
464,128,58,0.225195422963325,1
465,127,58,0.158860739875499,1
434,144,59,0.196154294943042,1
434,145,59,0.189121362396881,1
435,144,59,0.279454342926706,1
435,145,59,0.331326633835276,2
435,146,59,0.229396113389176,1
436,144,59,0.239206337197684,2
436,145,59,0.349207873843194,2
436,146,59,0.29863907004588,2
436,147,59,0.158877003727802,1
437,145,59,0.2655785564558,2
437,146,59,0.291244163738388,1
437,147,59,0.19284064986067,1
438,146,59,0.2477680247529,1
438,147,59,0.202014734461344,1
439,147,59,0.220110902278484,1
439,148,59,0.17813053129966,1
440,147,59,0.30798573284471,3
440,148,59,0.296616228389804,3
440,149,59,0.234994246765295,3
440,150,59,0.228929019319619,3
440,151,59,0.222998801868734,3
441,147,59,0.325581054093596,3
441,148,59,0.353745453305243,3
441,149,59,0.325507943307862,3
441,150,59,0.366248269153966,3
441,151,59,0.349895784155103,3
441,152,59,0.224691985484494,3
442,148,59,0.239099167714729,3
442,149,59,0.2803139835024,3
442,150,59,0.33966180514487,3
442,151,59,0.333229846083895,3
442,152,59,0.239607857675912,3
443,150,59,0.284721216608698,3
443,151,59,0.278023971858377,3
444,148,59,0.186049307948942,1
444,150,59,0.296994571995234,3
445,147,59,0.212227656434705,1
445,148,59,0.214911062519238,1
445,150,59,0.2749790159797,3
446,123,59,0.218162419755966,1
446,124,59,0.226147983013802,1
446,125,59,0.202569000894948,1
446,148,59,0.241694930360563,1
447,123,59,0.222689164501058,1
447,124,59,0.237755757026856,1
453,140,59,0.220466987606685,2
454,142,59,0.206566587485299,2
455,141,59,0.244203402873687,2
455,142,59,0.355799056135988,2
455,143,59,0.301360209209905,2
456,128,59,0.162936371758547,1
456,129,59,0.169525422438548,1
456,137,59,0.265142176453447,1
456,138,59,0.290122676318295,2
456,139,59,0.220658408790856,2
456,140,59,0.215548332306234,2
456,141,59,0.313241135858966,2
456,142,59,0.438290916672641,2
456,143,59,0.363754635492328,2
456,144,59,0.177982531421386,2
457,128,59,0.174002033063976,1
457,129,59,0.195874594369395,1
457,137,59,0.276258548944986,2
457,138,59,0.316017437864547,2
457,139,59,0.306086666053013,2
457,140,59,0.335180401334875,2
457,141,59,0.351163799345187,2
457,142,59,0.355149679730477,2
457,143,59,0.288652687871872,2
457,144,59,0.189846193184511,2
458,131,59,0.19352005727514,1
458,136,59,0.236957167725847,2
458,137,59,0.294472556085912,2
458,138,59,0.28790346719422,2
458,139,59,0.298765223837244,2
458,140,59,0.362576995973913,2
458,141,59,0.352183487533339,2
458,142,59,0.309007682191183,2
458,143,59,0.272274105337379,2
459,130,59,0.231871704891705,1
459,135,59,0.238700850544124,2
459,136,59,0.326164173849534,2
459,137,59,0.401336853328741,2
459,138,59,0.3479612925497,2
459,139,59,0.269064061347486,2
459,140,59,0.261592416979452,2
459,141,59,0.251622051343557,2
459,142,59,0.257652537033769,2
460,128,59,0.241640474130983,1
460,129,59,0.25469868699247,4
460,130,59,0.266752191839687,1
460,131,59,0.241773246521184,1
460,135,59,0.260343409651509,2
460,136,59,0.321502065803664,2
460,137,59,0.389299082374846,2
460,138,59,0.348924781532065,2
460,139,59,0.2363925847574,2
461,127,59,0.252284759161672,1
461,128,59,0.274381269355869,4
461,129,59,0.314134835131881,4
461,130,59,0.305460160321778,4
461,131,59,0.210113520511391,1
461,136,59,0.248884471674234,2
461,137,59,0.246887963091113,2
461,138,59,0.205545274089603,2
462,127,59,0.233604176133304,1
462,128,59,0.250473218040011,1
462,129,59,0.250101917000604,4
462,130,59,0.217465135058515,1
463,126,59,0.204725368660666,1
463,127,59,0.2690617530817,1
463,128,59,0.270747658594112,1
463,129,59,0.216061544584059,1
464,126,59,0.205912429672088,1
464,127,59,0.280824063133801,1
464,128,59,0.272655016299654,1
464,129,59,0.205714225012952,1
465,127,59,0.195580396473384,1
465,128,59,0.197470253755666,1
434,143,60,0.164561873723918,1
434,144,60,0.220200430015784,1
434,145,60,0.210925558993668,1
434,146,60,0.142918042714977,1
435,127,60,0.117739773935044,1
435,143,60,0.160608485712636,1
435,144,60,0.25550514324014,1
435,145,60,0.312111098433969,1
435,146,60,0.237608287107563,1
435,147,60,0.134081541985612,1
436,144,60,0.183680049771863,1
436,145,60,0.283423335285781,2
436,146,60,0.284489518541922,1
436,147,60,0.18900567823962,1
437,123,60,0.21084118952379,1
437,144,60,0.120711595474254,1
437,145,60,0.194840255759618,1
437,146,60,0.259757086587949,1
437,147,60,0.218875037933286,1
437,148,60,0.125879437487876,1
438,122,60,0.206677313581864,1
438,123,60,0.192317121048002,1
438,145,60,0.135055288618488,1
438,146,60,0.196416883730014,1
438,147,60,0.190427204881389,1
438,148,60,0.128397543477599,1
439,121,60,0.192689729319564,1
439,122,60,0.196993208234121,1
439,146,60,0.149097753077554,1
439,147,60,0.16894623615594,1
439,148,60,0.156996167525075,1
439,149,60,0.14959912960479,1
440,138,60,0.121904945332258,1
440,146,60,0.150966659314762,1
440,147,60,0.221621450252303,1
440,148,60,0.248395920154354,1
440,149,60,0.238635300506528,1
440,150,60,0.225281346979549,3
441,121,60,0.183194454245414,1
441,125,60,0.118234049011926,1
441,126,60,0.142378709347789,1
441,146,60,0.143476489936102,1
441,147,60,0.233405665275646,1
441,148,60,0.285962239221317,3
441,149,60,0.295288198289264,3
441,150,60,0.305130714265054,3
441,151,60,0.297357040384947,3
442,120,60,0.184235470338361,1
442,126,60,0.131364913361364,1
442,147,60,0.151294857023662,1
442,148,60,0.197119256033689,1
442,149,60,0.242717350781687,1
442,150,60,0.288162723128041,3
442,151,60,0.281794924434444,3
443,120,60,0.176878779961879,1
443,148,60,0.132411888548637,1
443,149,60,0.194175569427971,1
444,120,60,0.164258949170009,1
444,146,60,0.125523976333586,1
444,147,60,0.136754537320371,1
444,148,60,0.142415712261574,1
444,149,60,0.187566957373114,1
445,120,60,0.172050830085352,1
445,123,60,0.148956725104105,1
445,124,60,0.147408373389596,1
445,125,60,0.132912888216152,1
445,126,60,0.125653074341515,1
445,127,60,0.114638030007267,1
445,146,60,0.133584393353363,1
445,147,60,0.170007555566317,1
445,148,60,0.185025650956861,1
445,149,60,0.200856432557326,1
446,120,60,0.176193495891146,1
446,122,60,0.157742290886901,1
446,123,60,0.20576875190373,1
446,124,60,0.211171271531291,1
446,125,60,0.171208171750803,1
446,126,60,0.138044186613773,1
446,147,60,0.144750735088438,1
446,148,60,0.195945208459483,1
446,149,60,0.237572956508787,1
447,120,60,0.176525450420382,1
447,122,60,0.137765015999108,1
447,123,60,0.181174827673827,1
447,124,60,0.186745968472481,1
447,125,60,0.146761917646918,1
447,147,60,0.120073395314823,1
447,148,60,0.195495744358716,1
447,149,60,0.27275629734948,1
448,120,60,0.185893570669536,1
448,123,60,0.131630093058913,1
448,124,60,0.128725741186499,1
448,148,60,0.182076959182983,1
449,120,60,0.22955941141672,1
449,121,60,0.187894907767823,1
449,147,60,0.124234067949127,1
449,148,60,0.194093084256695,1
450,120,60,0.281893261267705,1
450,121,60,0.267320731835197,1
450,122,60,0.194373149913195,1
450,123,60,0.144725238172988,1
450,147,60,0.194701241630299,1
451,121,60,0.274126771276016,1
451,122,60,0.219071428955018,1
451,123,60,0.163051160873972,1
451,146,60,0.154251698388991,1
451,147,60,0.309025041292048,1
452,121,60,0.234803885499088,1
452,122,60,0.21269894306865,1
452,145,60,0.130756296689975,1
452,146,60,0.202676900543611,1
453,122,60,0.197684969581297,1
453,135,60,0.122607694495653,1
453,136,60,0.120519349909445,1
453,140,60,0.115167329484402,1
453,141,60,0.125520337281912,1
453,143,60,0.114815389613124,1
453,144,60,0.134741800215545,1
453,145,60,0.159662391161735,1
454,135,60,0.127445089418919,1
454,136,60,0.126533595301087,1
454,140,60,0.115015761215651,1
454,141,60,0.145595960779832,1
454,142,60,0.154901616530349,1
454,143,60,0.143899161666131,1
455,137,60,0.127750616660271,1
455,138,60,0.126235958560128,1
455,140,60,0.124044236641901,1
455,141,60,0.19359733707153,1
455,142,60,0.267143301568142,2
455,143,60,0.23944448898717,2
456,129,60,0.113889504164724,1
456,130,60,0.116371702489224,1
456,136,60,0.125194000317881,1
456,137,60,0.191747238489738,1
456,138,60,0.216371181951736,1
456,139,60,0.178198212950049,1
456,140,60,0.175415209907567,2
456,141,60,0.250753460349505,2
456,142,60,0.372370119772614,2
456,143,60,0.358299449718858,2
456,144,60,0.197618171195877,2
457,130,60,0.141740626957021,1
457,131,60,0.123024524900017,1
457,136,60,0.138545645579073,1
457,137,60,0.211475774185279,1
457,138,60,0.255108192186021,2
457,139,60,0.258526945799752,2
457,140,60,0.294128318285168,2
457,141,60,0.331311912752452,2
457,142,60,0.386599047355156,2
457,143,60,0.37371711062783,2
457,144,60,0.23449151589844,2
458,130,60,0.178799304203898,1
458,131,60,0.162480124182815,1
458,132,60,0.140597740970936,1
458,133,60,0.11920408593193,1
458,134,60,0.118344987092084,1
458,135,60,0.134282832183707,1
458,136,60,0.179677799542473,1
458,137,60,0.231877687539765,2
458,138,60,0.253923934068769,2
458,139,60,0.292166198151522,2
458,140,60,0.392129840610008,2
458,141,60,0.412438999365839,2
458,142,60,0.364300846549411,2
458,143,60,0.309071300822713,2
458,144,60,0.229983143064712,2
459,129,60,0.18746120111411,1
459,131,60,0.204015364947656,1
459,132,60,0.170495753780209,1
459,133,60,0.145393575333175,1
459,134,60,0.176092144180122,1
459,135,60,0.202774083243978,1
459,136,60,0.252785535068728,2
459,137,60,0.314435310097608,2
459,138,60,0.307398773830371,2
459,139,60,0.27699337829207,2
459,140,60,0.307224405548543,2
459,141,60,0.314228319896243,2
459,142,60,0.27379103637271,2
459,143,60,0.232478401933893,2
460,129,60,0.213495648071058,1
460,130,60,0.218202578869909,1
460,135,60,0.23610209657426,1
460,136,60,0.26606093689776,2
460,137,60,0.321257201200411,2
460,138,60,0.317781259124127,2
460,139,60,0.242221026530076,2
460,140,60,0.181421812113006,2
460,141,60,0.163344569719943,2
461,128,60,0.263467600286376,1
461,129,60,0.25935050205723,4
461,130,60,0.251203595731649,1
461,136,60,0.209798206694178,1
461,137,60,0.228848795306664,2
461,138,60,0.222897827017431,2
462,127,60,0.229383370819884,1
462,128,60,0.26112357993369,1
462,129,60,0.246859251091174,1
462,130,60,0.204006579405427,1
463,126,60,0.22326043672954,1
463,127,60,0.259779415526376,1
463,128,60,0.288146871466057,1
463,129,60,0.233087265919473,1
464,126,60,0.215830223377004,1
464,127,60,0.272105554827483,1
464,128,60,0.287633352989708,1
464,129,60,0.211511198998985,1
465,127,60,0.2129496725513,1
465,128,60,0.227856947630348,1
433,144,61,0.129247503469229,1
434,143,61,0.149201012640911,1
434,144,61,0.210401135139163,1
434,145,61,0.200679732455979,1
434,146,61,0.16118824906169,1
434,147,61,0.120674674998533,1
435,143,61,0.128559463611792,1
435,144,61,0.202572533954825,1
435,145,61,0.241366473560606,1
435,146,61,0.218796368466677,1
435,147,61,0.158185442587353,1
436,123,61,0.140014044148551,1
436,124,61,0.140016340637471,1
436,125,61,0.116249976799573,1
436,144,61,0.136159051854861,1
436,145,61,0.197958263539698,1
436,146,61,0.230643519063308,1
436,147,61,0.202282658168731,1
436,148,61,0.145059689397871,1
437,122,61,0.166832771514003,1
437,123,61,0.161115326705815,1
437,124,61,0.145152443996526,1
437,145,61,0.134218577601399,1
437,146,61,0.197666126595283,1
437,147,61,0.213753655657055,1
437,148,61,0.163067448280008,1
438,121,61,0.171895033921615,1
438,122,61,0.188191508144551,1
438,123,61,0.160183929684006,1
438,124,61,0.127111450797807,1
438,146,61,0.140149572325457,1
438,147,61,0.160565712134384,1
438,148,61,0.136671039338596,1
438,149,61,0.121755438015102,1
439,120,61,0.11780013037462,1
439,121,61,0.161470293231722,1
439,122,61,0.165718573974124,1
439,123,61,0.127672441822045,1
439,147,61,0.125208603632042,1
439,148,61,0.141542398744153,1
439,149,61,0.173408125698545,1
439,150,61,0.190504378685982,1
440,121,61,0.149664726749852,1
440,122,61,0.132275630206023,1
440,147,61,0.144459964260508,1
440,148,61,0.192608009644594,1
440,149,61,0.239980124418352,1
440,150,61,0.224367650587727,1
441,120,61,0.141920318382397,1
441,121,61,0.158203225655404,1
441,122,61,0.116309862164499,1
441,147,61,0.149366724926039,1
441,148,61,0.203063582170352,1
441,149,61,0.244136486719605,1
441,150,61,0.234597177942514,3
442,119,61,0.153509343624367,1
442,120,61,0.1863960542222,1
442,121,61,0.158392303243189,1
442,148,61,0.15172955293414,1
442,149,61,0.195214866098444,1
442,150,61,0.230594244654881,1
443,119,61,0.191212274339933,1
443,120,61,0.193384387775839,1
443,121,61,0.136176882030377,1
443,149,61,0.165018109522783,1
443,150,61,0.250275578670456,1
444,119,61,0.190636644670935,1
444,120,61,0.176568271106099,1
444,121,61,0.127029154056391,1
444,148,61,0.118742574096981,1
444,149,61,0.156025223786368,1
444,150,61,0.243454394179628,1
445,118,61,0.168483322873906,1
445,119,61,0.215448134728104,1
445,120,61,0.189653394106988,1
445,121,61,0.137713021134576,1
445,123,61,0.124674440309142,1
445,124,61,0.138173484828428,1
445,125,61,0.114116962559646,1
445,147,61,0.128652065111184,1
445,148,61,0.156474110820688,1
445,149,61,0.165124902146018,1
445,150,61,0.20123023029238,1
446,118,61,0.178876124702505,1
446,119,61,0.209861966648103,1
446,120,61,0.178313520247589,1
446,121,61,0.134035388446743,1
446,122,61,0.128821475332317,1
446,123,61,0.167793127849943,1
446,124,61,0.176080331983265,1
446,125,61,0.131966487466729,1
446,147,61,0.115267256194608,1
446,148,61,0.160177358192634,1
446,149,61,0.190070306949416,1
446,150,61,0.203972897567926,1
447,118,61,0.168245547944141,1
447,119,61,0.193534213068383,1
447,120,61,0.156181914991941,1
447,121,61,0.116649189012014,1
447,122,61,0.116807788069921,1
447,123,61,0.144714250356768,1
447,124,61,0.143223805493654,1
447,148,61,0.149662336046001,1
447,149,61,0.232519479643404,1
447,150,61,0.259601561292135,1
448,118,61,0.170795581018292,1
448,119,61,0.21244522226197,1
448,120,61,0.174599073075832,1
448,121,61,0.122291827165726,1
448,148,61,0.153380740244821,1
448,149,61,0.265207750044776,1
449,119,61,0.231843110660429,1
449,120,61,0.223927902401623,1
449,121,61,0.164963959491726,1
449,122,61,0.122519803742763,1
449,148,61,0.17219633326798,1
449,149,61,0.256415754093003,1
450,119,61,0.208605822539207,1
450,120,61,0.245652051638449,1
450,121,61,0.212991551087716,1
450,122,61,0.164098324491105,1
450,123,61,0.129192069759749,1
450,147,61,0.153898733930348,1
450,148,61,0.237489929601662,1
451,120,61,0.222013360807663,1
451,121,61,0.219751166121743,1
451,122,61,0.18659421177387,1
451,123,61,0.143777047339893,1
451,146,61,0.125053266766089,1
451,147,61,0.251337828453267,1
451,148,61,0.324095190431456,1
452,120,61,0.206681035071602,1
452,121,61,0.209574516896458,1
452,122,61,0.178368047138368,1
452,123,61,0.131256954828369,1
452,146,61,0.15849293656537,1
452,147,61,0.281245533623471,1
453,121,61,0.211231404210409,1
453,122,61,0.171284909811345,1
453,123,61,0.12541309713776,1
453,145,61,0.125442574634006,1
453,146,61,0.15899074470213,1
454,121,61,0.202367852019247,1
454,122,61,0.163978118017202,1
454,123,61,0.132579932653284,1
454,143,61,0.116038499612164,1
454,144,61,0.122734130931807,1
454,145,61,0.126415473332511,1
455,122,61,0.160751927943668,1
455,123,61,0.141233668195178,1
455,124,61,0.119626792992557,1
455,141,61,0.139745979118768,1
455,142,61,0.176491273954499,1
455,143,61,0.177517345204163,2
456,125,61,0.115291163233113,1
456,137,61,0.126215549250902,1
456,138,61,0.143190783160664,1
456,139,61,0.134487514119285,1
456,140,61,0.139985979876256,1
456,141,61,0.19100099735925,2
456,142,61,0.285546610057312,2
456,143,61,0.315581222738321,2
456,144,61,0.212819561732873,2
457,137,61,0.156795784145681,1
457,138,61,0.190958871508642,1
457,139,61,0.202091307645758,1
457,140,61,0.232531209402198,2
457,141,61,0.293053443701727,2
457,142,61,0.394375382807038,2
457,143,61,0.415841759995191,2
457,144,61,0.260062036762854,2
458,128,61,0.135088840910459,1
458,129,61,0.138789662247955,1
458,130,61,0.136893810540748,1
458,131,61,0.125259126388292,1
458,136,61,0.140440543360113,1
458,137,61,0.184781045444666,1
458,138,61,0.221818312348685,1
458,139,61,0.268597273476453,2
458,140,61,0.362372125608475,2
458,141,61,0.409118912337624,2
458,142,61,0.391827599114342,2
458,143,61,0.324119403668484,2
458,144,61,0.20130433033488,2
459,128,61,0.186024176116346,1
459,129,61,0.157584951953683,1
459,130,61,0.151822248648463,1
459,131,61,0.149994961856614,1
459,132,61,0.128644739900371,1
459,133,61,0.115411522806278,1
459,134,61,0.135102643397714,1
459,135,61,0.160043443446405,1
459,136,61,0.186771276958071,1
459,137,61,0.226899064436323,2
459,138,61,0.247692982561099,2
459,139,61,0.275259211181729,2
459,140,61,0.338820088959621,2
459,141,61,0.340950594727035,2
459,142,61,0.264519392211949,2
459,143,61,0.187953356355066,2
460,129,61,0.174720940087878,1
460,130,61,0.166865628970865,1
460,131,61,0.17000496465574,1
460,132,61,0.139007239852086,1
460,133,61,0.129687016118008,1
460,134,61,0.16467046820769,1
460,135,61,0.192048820480894,1
460,136,61,0.208778282968701,1
460,137,61,0.240047700076945,2
460,138,61,0.254553195586709,2
460,140,61,0.209345079988005,2
460,141,61,0.175883658316743,2
461,128,61,0.233035070848214,1
461,129,61,0.20895696158358,1
462,127,61,0.225008312112205,1
462,128,61,0.26739916576448,1
462,129,61,0.254993085095207,1
462,130,61,0.194815053265824,1
463,126,61,0.236728319660706,1
463,127,61,0.242354599747184,1
463,128,61,0.286689130960543,1
463,129,61,0.253618889678933,1
463,130,61,0.172264650869147,1
464,126,61,0.211697037948549,1
464,127,61,0.233887527535491,1
464,128,61,0.267580058430215,1
464,129,61,0.218712587840112,1
465,127,61,0.204119213354326,1
465,128,61,0.233971402376986,1
433,121,62,0.119444969954388,1
433,122,62,0.119678858518287,1
433,144,62,0.134483038910107,1
433,145,62,0.120561723074244,1
433,146,62,0.114691120120361,1
434,143,62,0.120032812233696,1
434,144,62,0.169662964459585,1
434,145,62,0.16604313263135,1
434,146,62,0.165931629261612,1
434,147,62,0.158375003026655,1
434,148,62,0.125513094509163,1
435,144,62,0.140551669870131,1
435,145,62,0.164251482636801,1
435,146,62,0.184122424199142,1
435,147,62,0.181080577413158,1
435,148,62,0.151668089469136,1
436,121,62,0.124853060039689,1
436,122,62,0.123654504806799,1
436,145,62,0.125432882273075,1
436,146,62,0.167269316392484,1
436,147,62,0.192941624711973,1
436,148,62,0.18711106310337,1
436,149,62,0.124404173005369,1
437,121,62,0.14480207044846,1
437,122,62,0.1484140471069,1
437,123,62,0.121056681209369,1
437,146,62,0.133384657701614,1
437,147,62,0.181947802290723,1
437,148,62,0.199748535640896,1
437,149,62,0.146092803213558,1
438,121,62,0.149304543072192,1
438,122,62,0.154831579506708,1
438,123,62,0.122889526682092,1
438,147,62,0.121984156534715,1
438,148,62,0.143421244656482,1
438,149,62,0.144072811559117,1
438,150,62,0.148583669311625,1
439,121,62,0.129289782419098,1
439,122,62,0.128059064564455,1
439,148,62,0.121521879203458,1
439,149,62,0.187782815554772,1
439,150,62,0.2335186289768,1
440,148,62,0.136101074342269,1
440,149,62,0.215220370134659,1
440,150,62,0.233888563899722,1
440,151,62,0.215713114218927,1
441,121,62,0.119636685560215,1
441,148,62,0.130802673989302,1
441,149,62,0.181687027141154,1
441,150,62,0.187824329008334,1
441,151,62,0.202250813522367,1
442,119,62,0.14007942931002,1
442,120,62,0.165654260507485,1
442,121,62,0.137480534017761,1
442,149,62,0.145399404881973,1
442,150,62,0.182085603402817,1
442,151,62,0.212910596909053,1
443,118,62,0.119934816929556,1
443,119,62,0.1908436348723,1
443,120,62,0.190847933428484,1
443,121,62,0.126059058252055,1
443,149,62,0.133021294270065,1
443,150,62,0.211106969841518,1
443,151,62,0.266301797366485,1
444,118,62,0.132376063321478,1
444,119,62,0.206913651733946,1
444,120,62,0.186745202976174,1
444,149,62,0.12599085841955,1
444,150,62,0.198026710686394,1
444,151,62,0.259149989132308,1
445,118,62,0.169760959763724,1
445,119,62,0.244110577613835,1
445,120,62,0.20411532698846,1
445,121,62,0.121945834611908,1
445,124,62,0.116986172263143,1
445,148,62,0.11556661235804,1
445,149,62,0.126921631267448,1
445,150,62,0.165685104120217,1
445,151,62,0.220998030060027,1
446,117,62,0.120820861239403,1
446,118,62,0.185700665600216,1
446,119,62,0.225943371739421,1
446,120,62,0.176936486606547,1
446,121,62,0.115031165356718,1
446,123,62,0.121813639288153,1
446,124,62,0.132307109769532,1
446,148,62,0.116992402225394,1
446,149,62,0.136865522507994,1
446,150,62,0.172514379318165,1
446,151,62,0.22628586656396,1
447,117,62,0.127221222968206,1
447,118,62,0.164418537484682,1
447,119,62,0.176817446042403,1
447,120,62,0.137484655920951,1
447,149,62,0.173625079128764,1
447,150,62,0.220959684583489,1
447,151,62,0.22740433910629,1
448,117,62,0.144264456503746,1
448,118,62,0.172186004956271,1
448,119,62,0.189177714701929,1
448,120,62,0.154067143117849,1
448,148,62,0.114371778614888,1
448,149,62,0.234852217758214,1
448,150,62,0.264929698232405,1
449,118,62,0.197287523898795,1
449,119,62,0.216683009816536,1
449,120,62,0.193158860786983,1
449,121,62,0.13581499070711,1
449,148,62,0.139379612586323,1
449,149,62,0.251837897748348,1
449,150,62,0.232215801370055,1
450,118,62,0.171848244431968,1
450,119,62,0.193829918403276,1
450,120,62,0.197713139845388,1
450,121,62,0.162359717502185,1
450,122,62,0.130335191283159,1
450,148,62,0.173430242653379,1
450,149,62,0.211953726525526,1
451,119,62,0.172192282025987,1
451,120,62,0.183867337275977,1
451,121,62,0.169787304613545,1
451,122,62,0.145983855423798,1
451,123,62,0.116340670446632,1
451,147,62,0.167830802045105,1
451,148,62,0.226030897409457,1
451,149,62,0.183947997032983,1
452,119,62,0.168824910879742,1
452,120,62,0.178056266381032,1
452,121,62,0.172231192792106,1
452,122,62,0.141938101450448,1
452,146,62,0.115989201650005,1
452,147,62,0.2190440359641,1
452,148,62,0.300758693988871,1
453,120,62,0.17729895499626,1
453,121,62,0.173152355717136,1
453,122,62,0.142732451079604,1
453,146,62,0.127568593415375,1
453,147,62,0.224785800001112,1
454,120,62,0.187190698273012,1
454,121,62,0.175076966531748,1
454,122,62,0.149668365801526,1
454,123,62,0.117559799864877,1
454,146,62,0.119652654990862,1
455,121,62,0.188462175861777,1
455,122,62,0.157936161659253,1
455,123,62,0.126575886027822,1
455,143,62,0.128383811651542,1
455,144,62,0.134817831664112,1
456,122,62,0.170603582767675,1
456,123,62,0.13938135556253,1
456,141,62,0.137246044833682,1
456,142,62,0.204752808759049,2
456,143,62,0.247700825954027,2
457,123,62,0.150371668477635,1
457,124,62,0.117119215521269,1
457,138,62,0.13227078991399,1
457,139,62,0.145694062075768,1
457,140,62,0.17195328230213,1
457,141,62,0.23577641911474,2
457,142,62,0.349583485215652,2
457,143,62,0.374627179744845,2
457,144,62,0.243665977358833,2
458,137,62,0.134302287566767,1
458,138,62,0.176183697538418,1
458,139,62,0.220102658472103,1
458,140,62,0.293568045649772,2
458,141,62,0.345366801805422,2
458,142,62,0.369882869172489,2
458,143,62,0.302810059215026,2
459,127,62,0.147427393028604,1
459,128,62,0.147662577047792,1
459,129,62,0.120510623251548,1
459,136,62,0.126112595886067,1
459,137,62,0.15015728240426,1
459,138,62,0.185708037918494,1
459,139,62,0.254019891975045,2
459,140,62,0.338495377203134,2
459,141,62,0.317462953982884,2
459,142,62,0.236185241250047,2
460,127,62,0.184897601090029,1
460,128,62,0.178281993576615,1
460,129,62,0.136111367323379,1
460,130,62,0.118846128081994,1
460,131,62,0.117114598989696,1
460,134,62,0.118889290296833,1
460,135,62,0.135212874865897,1
460,136,62,0.146804997423693,1
460,140,62,0.236969274344361,2
460,141,62,0.178841159186582,2
461,129,62,0.168988444444612,1
461,130,62,0.145696464556485,1
461,131,62,0.144578227551479,1
461,132,62,0.130255073262001,1
461,134,62,0.11505372983247,1
462,128,62,0.242126599616413,1
462,129,62,0.242321459645531,1
463,127,62,0.225111477460633,1
463,128,62,0.259791074623972,1
463,129,62,0.25544171303847,1
463,130,62,0.169003507056557,1
464,127,62,0.2045059185348,1
464,128,62,0.234188379360938,1
464,129,62,0.222462247841983,1
433,121,63,0.118954746119499,1
433,122,63,0.117810258479603,1
433,144,63,0.118476322704602,1
433,146,63,0.115076117655228,1
433,147,63,0.126804121695918,1
433,148,63,0.119997823164041,1
434,121,63,0.116710511154624,1
434,122,63,0.114616313465886,1
434,144,63,0.114609800858844,1
434,145,63,0.121645724729036,1
434,146,63,0.151625869403598,1
434,147,63,0.182740326505609,1
434,148,63,0.157196174044748,1
435,146,63,0.146219887377357,1
435,147,63,0.189755110900865,1
435,148,63,0.181273129176489,1
435,149,63,0.117255626963145,1
436,146,63,0.118643648420407,1
436,147,63,0.16714391632056,1
436,148,63,0.200739134969388,1
436,149,63,0.150121657383827,1
437,121,63,0.125414804783367,1
437,122,63,0.12177842645804,1
437,147,63,0.143877598224011,1
437,148,63,0.208134488797798,1
437,149,63,0.177702877955204,1
437,150,63,0.116843860611272,1
438,121,63,0.120218156554877,1
438,122,63,0.114747060235091,1
438,148,63,0.147775658517609,1
438,149,63,0.164560283846973,1
438,150,63,0.165495461242851,1
439,149,63,0.19137499530103,1
439,150,63,0.262335372364255,1
440,149,63,0.180084242750797,1
440,150,63,0.24279531363632,1
440,151,63,0.210240522237126,1
441,149,63,0.133842448046826,1
441,150,63,0.165813153987049,1
441,151,63,0.183325530766875,1
442,119,63,0.118906343199175,1
442,120,63,0.135069997924445,1
442,150,63,0.146343214720819,1
443,119,63,0.163957496724382,1
443,120,63,0.16615680294448,1
443,121,63,0.114797677206271,1
443,150,63,0.163376355481976,1
443,151,63,0.237760114467371,1
444,118,63,0.130132958935763,1
444,119,63,0.20047111704707,1
444,120,63,0.180543740741617,1
444,150,63,0.151856342676283,1
445,118,63,0.163975527106625,1
445,119,63,0.247391824537129,1
445,120,63,0.200518153850908,1
445,150,63,0.13401276508666,1
446,117,63,0.119030271162817,1
446,118,63,0.175725636325282,1
446,119,63,0.223250638376812,1
446,120,63,0.16846857823735,1
446,150,63,0.147252435903463,1
447,117,63,0.125956752614865,1
447,118,63,0.157186517014416,1
447,119,63,0.163888507841838,1
447,120,63,0.126196647380556,1
447,149,63,0.130400576444628,1
447,150,63,0.183252620187866,1
447,151,63,0.207053325367775,1
448,116,63,0.124485845572873,1
448,117,63,0.145915938236084,1
448,118,63,0.171561336416171,1
448,119,63,0.16132250533704,1
448,120,63,0.12917547615519,1
448,149,63,0.187361922131549,1
448,150,63,0.224002779717297,1
449,117,63,0.173580845219096,1
449,118,63,0.199729033150371,1
449,119,63,0.181462748500122,1
449,120,63,0.147850535833283,1
449,148,63,0.113973414336818,1
449,149,63,0.215622479456199,1
449,150,63,0.210909448240626,1
450,117,63,0.160147032762017,1
450,118,63,0.173854315830492,1
450,119,63,0.165744247542568,1
450,120,63,0.147726125018125,1
450,121,63,0.120407575671783,1
450,148,63,0.127166319217707,1
450,149,63,0.189058780129581,1
451,118,63,0.156105176931399,1
451,119,63,0.157660547658198,1
451,120,63,0.146181742107545,1
451,121,63,0.128171863389482,1
451,148,63,0.149934275664783,1
452,118,63,0.158888745263462,1
452,119,63,0.156289685095076,1
452,120,63,0.145287654198043,1
452,121,63,0.13301787897885,1
452,147,63,0.160913412333808,1
452,148,63,0.24656320422716,1
453,119,63,0.153996175721774,1
453,120,63,0.143828877328298,1
453,121,63,0.137119419967667,1
453,122,63,0.11957204234132,1
453,147,63,0.197935251543029,1
454,119,63,0.166666011087778,1
454,120,63,0.158905173991893,1
454,121,63,0.153854511797546,1
454,122,63,0.137961724996229,1
455,120,63,0.188425844229369,1
455,121,63,0.177264024810937,1
455,122,63,0.15429454262844,1
455,123,63,0.116234949518227,1
455,144,63,0.12070968762192,1
455,145,63,0.114852427857508,1
456,121,63,0.18418985853534,1
456,122,63,0.159500624126804,1
456,123,63,0.127418862337761,1
456,142,63,0.150334512464588,1
456,143,63,0.1848156576546,1
456,144,63,0.176726728841611,1
457,122,63,0.162933816178569,1
457,123,63,0.133401475066631,1
457,140,63,0.132469771846299,1
457,141,63,0.185757512533648,1
457,142,63,0.274347540410903,2
457,143,63,0.286586578009161,2
458,123,63,0.13100997038919,1
458,138,63,0.137754028182889,1
458,139,63,0.173260019828474,1
458,140,63,0.220616224055917,1
458,141,63,0.266145589012429,2
458,142,63,0.31190172930562,2
459,138,63,0.147503542245833,1
459,139,63,0.22374993039872,1
459,140,63,0.298343305826656,2
459,141,63,0.268468787865569,2
460,126,63,0.125586417278491,1
460,127,63,0.138914237939241,1
460,128,63,0.131969113707905,1
461,127,63,0.15554047619429,1
461,128,63,0.149060125989857,1
461,129,63,0.137601788632761,1
461,130,63,0.123005034186358,1
461,131,63,0.11887780785223,1
461,132,63,0.114268884134385,1
462,130,63,0.158193686393734,1
462,131,63,0.133086125918819,1
462,132,63,0.119983549602135,1
463,128,63,0.214658872705172,1
463,129,63,0.224223784389509,1
433,122,64,0.115153161914293,1
433,147,64,0.12971099381771,1
433,148,64,0.143261173490293,1
434,121,64,0.117752752041661,1
434,146,64,0.131807052251318,1
434,147,64,0.180778441909288,1
434,148,64,0.169749206451198,1
434,149,64,0.120275615885353,1
435,146,64,0.120171932354811,1
435,147,64,0.182724910587676,1
435,148,64,0.18462499018987,1
435,149,64,0.12842360568263,1
436,147,64,0.140270862271057,1
436,148,64,0.182197036111358,1
436,149,64,0.157390892751471,1
437,148,64,0.183453674848637,1
437,149,64,0.185035955714837,1
437,150,64,0.146115379466176,1
438,148,64,0.141532164647374,1
438,149,64,0.173017404606677,1
438,150,64,0.17988279945344,1
439,149,64,0.181278593642433,1
439,150,64,0.255060990506056,1
440,149,64,0.146497974520326,1
440,150,64,0.227793517428679,1
440,151,64,0.19658562266977,1
441,150,64,0.147163084819158,1
441,151,64,0.165264846647772,1
442,150,64,0.113809468581629,1
442,151,64,0.160398433526044,1
443,119,64,0.121939569319059,1
443,120,64,0.121772844223433,1
443,150,64,0.116637918551005,1
443,151,64,0.187127268071342,1
444,118,64,0.119127100557197,1
444,119,64,0.1676750294351,1
444,120,64,0.148554050492984,1
444,151,64,0.154518573955281,1
445,118,64,0.148345281984815,1
445,119,64,0.214731017787873,1
445,120,64,0.170560432329702,1
445,151,64,0.146172673920525,1
446,118,64,0.153175905209982,1
446,119,64,0.193982252168333,1
446,120,64,0.146249270658673,1
446,150,64,0.118073801192742,1
447,117,64,0.116363988641825,1
447,118,64,0.143747982033967,1
447,119,64,0.146951160110831,1
447,150,64,0.138897538342886,1
448,117,64,0.135126797750411,1
448,118,64,0.162579791801963,1
448,119,64,0.140376076794213,1
448,149,64,0.125165936045586,1
448,150,64,0.157953991834769,1
449,116,64,0.13210042576669,1
449,117,64,0.153155919867941,1
449,118,64,0.182057174047668,1
449,119,64,0.149496388223548,1
449,149,64,0.148994858597051,1
450,116,64,0.139418900212163,1
450,117,64,0.149679848246128,1
450,118,64,0.161865289326042,1
450,119,64,0.139630612936897,1
451,117,64,0.153183030214069,1
451,118,64,0.150729426120844,1
451,119,64,0.137393809174631,1
451,120,64,0.114387359408948,1
452,118,64,0.143029322324256,1
452,119,64,0.134710874164749,1
452,120,64,0.114164541099332,1
453,118,64,0.136874402265153,1
453,119,64,0.131192653138596,1
453,120,64,0.115030706058934,1
454,118,64,0.154176903511381,1
454,119,64,0.147368332044316,1
454,120,64,0.133419552556338,1
454,121,64,0.128977377487851,1
454,122,64,0.117549789528557,1
455,119,64,0.174083246333697,1
455,120,64,0.157924891198243,1
455,121,64,0.157668614811586,1
455,122,64,0.141945144016471,1
456,120,64,0.164422753602802,1
456,121,64,0.16353361197713,1
456,122,64,0.147605753668093,1
456,143,64,0.130123419674094,1
456,144,64,0.135952921364733,1
457,121,64,0.169195411092244,1
457,122,64,0.150267372550047,1
457,123,64,0.117918947178305,1
457,141,64,0.139005437991549,1
457,142,64,0.188062292367959,1
457,143,64,0.192242255509194,1
458,122,64,0.151213066687494,1
458,123,64,0.118327710429282,1
458,139,64,0.132628300243009,1
458,140,64,0.163591565935989,1
458,141,64,0.19694529994218,1
458,142,64,0.228775731628395,1
459,123,64,0.12631292038113,1
459,138,64,0.12368768023905,1
459,139,64,0.186412318074503,1
459,140,64,0.23593050763287,1
460,125,64,0.122307243083658,1
460,138,64,0.136873577884515,1
460,139,64,0.196097754208133,1
461,127,64,0.127957159340718,1
462,130,64,0.127856938208855,1
433,147,65,0.124673321506847,1
433,148,65,0.17029475800377,1
434,147,65,0.155883948498727,1
434,148,65,0.16633554044369,1
434,149,65,0.140991983345815,1
435,147,65,0.161808819252331,1
435,148,65,0.170394095870663,1
435,149,65,0.137935297708344,1
436,147,65,0.12345271998032,1
436,148,65,0.154631054804919,1
436,149,65,0.153243940166359,1
436,150,65,0.140419533430708,1
437,148,65,0.142661283476802,1
437,149,65,0.170584563128667,1
437,150,65,0.179394189049229,1
438,148,65,0.120628439021601,1
438,149,65,0.164608627882965,1
438,150,65,0.187191864182772,1
438,151,65,0.145719123247167,1
439,149,65,0.156118567228335,1
439,150,65,0.207483934705662,1
439,151,65,0.158826021673768,1
440,149,65,0.117109028531955,1
440,150,65,0.181618485779528,1
440,151,65,0.169000056434743,1
441,150,65,0.1307777188097,1
441,151,65,0.151133160649929,1
442,151,65,0.135711589821358,1
442,152,65,0.159084147028428,1
443,151,65,0.141390241632089,1
443,152,65,0.189367546009154,1
444,119,65,0.12286686799141,1
444,151,65,0.120570002211224,1
444,152,65,0.14555674381519,1
445,118,65,0.121850736416869,1
445,119,65,0.15548579620425,1
445,120,65,0.122771263391121,1
445,151,65,0.117135750241496,1
445,152,65,0.124367523397571,1
446,118,65,0.120032647357568,1
446,119,65,0.144180169471932,1
446,151,65,0.140120401027734,1
447,118,65,0.117602090591612,1
447,119,65,0.122763961734041,1
448,118,65,0.136864709904222,1
448,119,65,0.123319370523672,1
449,117,65,0.124369431249905,1
449,118,65,0.147127118269603,1
449,119,65,0.12498035618708,1
450,117,65,0.130119262440304,1
450,118,65,0.136830227239816,1
450,119,65,0.119137770398027,1
451,117,65,0.137040361864472,1
451,118,65,0.132197961773046,1
451,119,65,0.118429815859746,1
452,117,65,0.130386620858111,1
452,118,65,0.125469779195063,1
452,119,65,0.11649445276624,1
453,118,65,0.116417714705698,1
454,118,65,0.128774674065805,1
454,119,65,0.12519576684782,1
454,120,65,0.115793034388732,1
455,118,65,0.161044877491855,1
455,119,65,0.145181450418121,1
455,120,65,0.133675946711659,1
455,121,65,0.136887933884484,1
455,122,65,0.120724844448795,1
456,119,65,0.152615067285006,1
456,120,65,0.138435155019833,1
456,121,65,0.14341996097806,1
456,122,65,0.130702464634306,1
457,120,65,0.1488259783349,1
457,121,65,0.155713902326817,1
457,122,65,0.142043563287796,1
457,142,65,0.12091499373141,1
457,143,65,0.11911122534148,1
458,121,65,0.17391847619787,1
458,122,65,0.15083407535442,1
458,140,65,0.12957762080733,1
458,141,65,0.149873141952033,1
458,142,65,0.151960721041934,1
459,122,65,0.151921880937013,1
459,123,65,0.115313174196151,1
459,139,65,0.145962551072736,1
459,140,65,0.171183487439124,1
460,123,65,0.145339955261098,1
460,124,65,0.128171792728284,1
460,125,65,0.119452848677915,1
461,125,65,0.153350450144804,1
461,126,65,0.128892536943323,1
462,128,65,0.114686868671642,1
432,148,66,0.155271139262951,1
433,147,66,0.122840723348316,1
433,148,66,0.184409779735857,1
433,149,66,0.197120527935245,1
434,147,66,0.129362433907049,1
434,148,66,0.159908857418799,1
434,149,66,0.160324227491747,1
435,147,66,0.128932118990819,1
435,148,66,0.150555693789795,1
435,149,66,0.144848742169444,1
436,148,66,0.130411611368313,1
436,149,66,0.142380099018007,1
436,150,66,0.142668031621169,1
437,149,66,0.147349913025487,1
437,150,66,0.184284014581079,1
437,151,66,0.15624267184497,1
438,149,66,0.147349854141156,1
438,150,66,0.182106625109089,1
438,151,66,0.14385181866377,1
439,149,66,0.123730371379238,1
439,150,66,0.152138127755257,1
439,151,66,0.126169431042632,1
440,150,66,0.127063083208082,1
440,151,66,0.132792410874325,1
441,151,66,0.128976400007952,1
442,152,66,0.120401663684921,1
443,152,66,0.130335521035415,1
455,118,66,0.13245308402681,1
455,119,66,0.117967326544896,1
455,121,66,0.11392011224013,1
456,119,66,0.127961234136443,1
456,120,66,0.118050871634136,1
456,121,66,0.12138245288382,1
457,119,66,0.135069055775144,1
457,120,66,0.128481512534025,1
457,121,66,0.132358798435542,1
457,122,66,0.121287342911914,1
458,120,66,0.149754242710285,1
458,121,66,0.156017462831503,1
458,122,66,0.138180515617585,1
459,121,66,0.163747515198988,1
459,122,66,0.140296135426048,1
460,122,66,0.144029025170367,1
460,123,66,0.129845061663201,1
460,124,66,0.118376878845912,1
461,123,66,0.237545587071601,1
461,124,66,0.202729684458183,1
461,125,66,0.148773665494978,1
461,126,66,0.115875743320468,1
462,125,66,0.181189065905134,1
462,126,66,0.13898818488248,1
462,127,66,0.122395145613414,1
432,148,67,0.144873921109505,1
433,147,67,0.121418136788584,1
433,148,67,0.174466701099083,1
433,149,67,0.187386606443227,1
434,148,67,0.156164367461216,1
434,149,67,0.16853364542343,1
435,148,67,0.141485033628606,1
435,149,67,0.154026748466581,1
436,148,67,0.115745714940104,1
436,149,67,0.135450579134464,1
436,150,67,0.131648830053131,1
437,149,67,0.128893832398611,1
437,150,67,0.165788705212695,1
437,151,67,0.145948689701149,1
438,149,67,0.13122978559791,1
438,150,67,0.168065008584393,1
438,151,67,0.138306245441764,1
439,150,67,0.123296488072531,1
457,119,67,0.118715746395643,1
457,120,67,0.115606418165995,1
457,121,67,0.116437535171611,1
458,119,67,0.134381169016968,1
458,120,67,0.134037143199816,1
458,121,67,0.139407971280274,1
458,122,67,0.125608934646777,1
459,120,67,0.144817203721603,1
459,121,67,0.155123374922002,1
459,122,67,0.138453939121515,1
459,140,67,0.116216188970277,1
460,121,67,0.144611096785208,1
460,122,67,0.140592747579642,1
460,123,67,0.125652414837005,1
460,124,67,0.115319050852414,1
461,122,67,0.17232221619142,1
461,123,67,0.20989056087938,1
461,124,67,0.20418801380701,1
461,125,67,0.158065530535106,1
462,123,67,0.290541814988446,1
462,124,67,0.281882379443282,1
462,125,67,0.204910218353464,1
462,126,67,0.148380235723871,1
462,127,67,0.124359362029254,1
463,125,67,0.173667829153284,1
463,127,67,0.154638898197847,1
463,128,67,0.126189534153336,1
432,147,68,0.119147686519417,1
432,148,68,0.13255992375751,1
433,147,68,0.125537519729784,1
433,148,68,0.159742462075429,1
433,149,68,0.161517765779611,1
434,148,68,0.162173077725716,1
434,149,68,0.170112699428276,1
435,148,68,0.140151927698709,1
435,149,68,0.157114536807842,1
436,149,68,0.125332896678537,1
436,150,68,0.11526114400102,1
437,150,68,0.131984117435519,1
437,151,68,0.118642034989729,1
438,150,68,0.132701493466807,1
438,151,68,0.115519940637057,1
458,119,68,0.11913461419787,1
458,120,68,0.1194696424892,1
458,121,68,0.123248038044742,1
459,120,68,0.134198592259358,1
459,121,68,0.141760129447545,1
459,122,68,0.133387778571172,1
460,121,68,0.142522763975866,1
460,122,68,0.141449267285778,1
460,123,68,0.127391127817721,1
461,122,68,0.156084437869917,1
461,123,68,0.178711154359951,1
461,124,68,0.194576135980032,1
461,125,68,0.166009745215507,1
462,123,68,0.221273349639425,1
462,124,68,0.254557223274969,1
462,125,68,0.223288771869758,1
462,126,68,0.159163947074198,1
462,127,68,0.126098239886098,1
463,124,68,0.191320291757258,1
463,125,68,0.177404746585863,1
463,126,68,0.157856726696337,1
463,127,68,0.152622215842825,1
463,128,68,0.1210865826728,1
464,127,68,0.159293904793364,1
432,147,69,0.125405277298564,1
432,148,69,0.122871649399111,1
433,147,69,0.127764006957207,1
433,148,69,0.145795319571861,1
433,149,69,0.132088283817578,1
434,148,69,0.163458028049481,1
434,149,69,0.156493872402271,1
435,148,69,0.141269776067128,1
435,149,69,0.151968093360212,1
436,149,69,0.114490713187235,1
459,119,69,0.123182970858663,1
459,120,69,0.115566153060256,1
459,121,69,0.116742779768173,1
459,122,69,0.115720064925393,1
460,120,69,0.148431123562975,1
460,121,69,0.135093539880096,1
460,122,69,0.137719616179681,1
460,123,69,0.129700100216421,1
461,121,69,0.17001506920699,1
461,122,69,0.148783911368624,1
461,123,69,0.160229353057166,1
461,124,69,0.180686346815144,1
461,125,69,0.166935819093767,1
462,122,69,0.160779980439096,1
462,123,69,0.17322779832239,1
462,124,69,0.219300559664949,1
462,125,69,0.221839487154218,1
462,126,69,0.161378139253247,1
462,127,69,0.121838983104342,1
463,124,69,0.176701785438875,1
463,125,69,0.180502333279851,1
463,126,69,0.159413169117966,1
463,127,69,0.145420132166588,1
463,128,69,0.11639982564585,1
464,126,69,0.152302662353758,1
432,147,70,0.124571710704766,1
432,148,70,0.113759051817175,1
433,147,70,0.125416100238656,1
433,148,70,0.131153283074693,1
434,148,70,0.148910983755556,1
434,149,70,0.137617298765624,1
435,148,70,0.129222477628429,1
435,149,70,0.136771496007784,1
460,121,70,0.128741062889502,1
460,122,70,0.128844593320783,1
460,123,70,0.127786406556832,1
461,122,70,0.142022211829269,1
461,123,70,0.145946758295083,1
461,124,70,0.161668698097584,1
461,125,70,0.156320764245133,1
461,126,70,0.114576684310925,1
462,124,70,0.181824109864407,1
462,125,70,0.198070049554227,1
462,126,70,0.155727516384212,1
462,127,70,0.115974810319437,1
463,126,70,0.157446868196799,1
