x,y,z,signal,mito.p
221,416,8,0.237151203374327,2
218,413,9,0.221418817491454,2
219,413,9,0.265027045808901,2
219,414,9,0.230929932450722,2
220,414,9,0.214648037988214,2
220,415,9,0.26781408831651,2
220,416,9,0.289583814025758,2
221,415,9,0.268528755668559,2
221,416,9,0.317011240500662,2
221,417,9,0.262241416525242,2
222,416,9,0.223488978596158,2
217,413,10,0.179698467942758,2
218,412,10,0.281717809514182,2
218,413,10,0.343611483443281,2
218,414,10,0.223662051422697,2
219,412,10,0.309151807480458,2
219,413,10,0.421310135858871,2
219,414,10,0.329913716082743,2
219,415,10,0.278442639453877,2
219,416,10,0.249392407915976,2
220,413,10,0.287435572297758,2
220,414,10,0.296595948626106,2
220,415,10,0.374628121894146,2
220,416,10,0.401777543664145,2
220,417,10,0.253568578906276,2
221,414,10,0.200463061670549,2
221,415,10,0.34638561850547,2
221,416,10,0.419839582122868,2
221,417,10,0.279022367472333,2
222,415,10,0.254913237941973,2
222,416,10,0.290010772535104,2
217,413,11,0.173829195774762,2
218,412,11,0.327637624694638,2
218,413,11,0.405607992968551,2
218,414,11,0.230912855994646,2
218,415,11,0.13096750300946,2
219,411,11,0.147860923029323,2
219,412,11,0.370201386297324,2
219,413,11,0.504173344542398,2
219,414,11,0.362925850306231,2
219,415,11,0.29093264207211,2
219,416,11,0.273876277330691,2
220,412,11,0.221849780135328,2
220,413,11,0.32263134950922,2
220,414,11,0.343825045136018,2
220,415,11,0.435204718208326,2
220,416,11,0.479668370983347,2
220,417,11,0.284538204107036,2
221,413,11,0.16809243690591,2
221,414,11,0.238948847793802,2
221,415,11,0.388395254996948,2
221,416,11,0.477339283697077,2
221,417,11,0.302884465456049,2
221,418,11,0.134150519091289,2
222,414,11,0.176315939969638,2
222,415,11,0.28822436324604,2
222,416,11,0.338634202902592,2
222,417,11,0.225451569804454,2
223,415,11,0.25231271744217,2
223,416,11,0.23524464649569,2
217,413,12,0.146323983098218,2
218,412,12,0.318727954295207,2
218,413,12,0.385041862990953,2
218,414,12,0.206694342930474,2
219,411,12,0.182699602102086,2
219,412,12,0.412709160677816,2
219,413,12,0.515235119481961,2
219,414,12,0.348516336256477,2
219,415,12,0.265239853782197,2
219,416,12,0.253376969292245,2
220,412,12,0.272245628874766,2
220,413,12,0.359939001485675,2
220,414,12,0.389481458925729,2
220,415,12,0.467776939369583,2
220,416,12,0.499726446950541,2
220,417,12,0.300137511401184,2
221,413,12,0.227291398958868,2
221,414,12,0.321456041810325,2
221,415,12,0.438227839776959,2
221,416,12,0.495072040975204,2
221,417,12,0.316608236137286,2
221,418,12,0.127570524821442,2
222,414,12,0.227402478361421,2
222,415,12,0.31079776586252,2
222,416,12,0.355136371871605,2
222,417,12,0.241252426387755,2
223,415,12,0.295341382617289,2
223,416,12,0.266256126679134,2
224,414,12,0.295273806958696,2
224,415,12,0.30358905181058,2
225,414,12,0.282925032520638,2
225,415,12,0.254924001997733,2
218,412,13,0.264992822235553,2
218,413,13,0.298809080887192,2
218,414,13,0.164346521947509,2
219,411,13,0.226433854665368,2
219,412,13,0.42206418505169,2
219,413,13,0.452654689373847,2
219,414,13,0.284831377415683,2
219,415,13,0.204842807570999,2
219,416,13,0.193302668100869,2
220,411,13,0.212510795853299,2
220,412,13,0.339915478844085,2
220,413,13,0.372354409433025,2
220,414,13,0.373787913147778,2
220,415,13,0.414027698624151,2
220,416,13,0.408732348479545,2
220,417,13,0.254720144442794,2
221,412,13,0.194126883862857,2
221,413,13,0.266410215197264,2
221,414,13,0.379415889102998,2
221,415,13,0.45769273854443,2
221,416,13,0.443774366925133,2
221,417,13,0.277620378651688,2
222,413,13,0.232276263801427,2
222,414,13,0.288455425362037,2
222,415,13,0.334570124125344,2
222,416,13,0.335197524898415,2
222,417,13,0.220362762340295,2
223,414,13,0.257145142527875,2
223,415,13,0.290612240648674,2
223,416,13,0.253998104772467,2
224,413,13,0.253444144537385,2
224,414,13,0.367349288380501,2
224,415,13,0.338803766222987,2
224,416,13,0.203976925256187,2
225,413,13,0.277143509783137,2
225,414,13,0.401610924560315,2
225,415,13,0.314362599725326,2
225,416,13,0.18769845786176,2
226,414,13,0.278971043889177,2
226,415,13,0.22750022635137,2
218,412,14,0.195810610655011,2
218,413,14,0.191646404960831,2
219,411,14,0.262864601180193,2
219,412,14,0.389849415335119,2
219,413,14,0.343643139659784,2
219,414,14,0.209261370022637,2
219,415,14,0.148549528176341,2
220,411,14,0.271162746022269,2
220,412,14,0.387537875579575,2
220,413,14,0.348887072006304,2
220,414,14,0.320446646603283,2
220,415,14,0.326611247246451,2
220,416,14,0.288786190427782,2
221,412,14,0.21559002241279,2
221,413,14,0.268394876252929,2
221,414,14,0.394564542832887,2
221,415,14,0.453103482193237,2
221,416,14,0.37203702288735,2
221,417,14,0.215496608309625,2
222,413,14,0.251603137696345,2
222,414,14,0.352025182897088,2
222,415,14,0.376110570265071,2
222,416,14,0.305886671310207,2
222,417,14,0.180544188262534,2
223,413,14,0.243223591154688,2
223,414,14,0.288013086265357,2
223,415,14,0.286312153471599,2
223,416,14,0.232396953126847,2
224,413,14,0.274407955734811,2
224,414,14,0.38102873093714,2
224,415,14,0.332713100746192,2
224,416,14,0.220861489072623,2
225,412,14,0.187889926153396,2
225,413,14,0.331889261843924,2
225,414,14,0.467214523344528,2
225,415,14,0.357401086806904,2
225,416,14,0.219835394269226,2
226,413,14,0.271564619806484,2
226,414,14,0.337197001251834,2
226,415,14,0.264412364051389,2
227,414,14,0.223688078297129,2
219,412,15,0.311205716509725,2
219,413,15,0.228122916377937,2
220,411,15,0.312506447834277,2
220,412,15,0.382173183246437,2
220,413,15,0.287259249056131,2
220,414,15,0.236485504232182,2
220,415,15,0.224388660517133,2
221,412,15,0.236109987074654,2
221,413,15,0.234492222510415,2
221,414,15,0.323316975109075,2
221,415,15,0.362139603161062,2
221,416,15,0.258427902354516,2
222,413,15,0.232863835212811,2
222,414,15,0.349710557602584,2
222,415,15,0.356072161664529,2
222,416,15,0.237602704872956,2
223,413,15,0.253303528754255,2
223,414,15,0.313682909666066,2
223,415,15,0.272826204827592,2
224,413,15,0.273392931185698,2
224,414,15,0.345176605415342,2
224,415,15,0.29262610833266,2
224,416,15,0.234100288401322,2
225,412,15,0.191295948974701,2
225,413,15,0.320785231508224,2
225,414,15,0.427443998881104,2
225,415,15,0.349949486665243,2
225,416,15,0.253419507333172,2
226,413,15,0.287021639002494,2
226,414,15,0.344542185629981,2
226,415,15,0.287046653066427,2
227,414,15,0.228414911999958,2
219,411,16,0.237435402710884,2
219,412,16,0.231533426185287,2
220,410,16,0.187365996927274,2
220,411,16,0.335020400829883,2
220,412,16,0.350469647294161,2
220,413,16,0.226525596453524,2
221,411,16,0.256809525393232,2
221,412,16,0.274718982772706,2
221,414,16,0.234753904478686,2
221,415,16,0.248290564308803,2
222,414,16,0.302996816760158,2
222,415,16,0.290493270745727,2
223,413,16,0.258508385458529,2
223,414,16,0.335141820321011,2
223,415,16,0.261675019919392,2
224,413,16,0.28493548491341,2
224,414,16,0.321485672405832,2
224,415,16,0.258944953890742,2
225,412,16,0.205388052925049,2
225,413,16,0.299756105810527,2
225,414,16,0.354239280861207,2
225,415,16,0.312272323733052,2
225,416,16,0.265780883018126,2
226,412,16,0.260496108499421,2
226,413,16,0.303378881855326,2
226,414,16,0.351332820929734,2
226,415,16,0.299919474499269,2
227,413,16,0.2656882932956,2
227,414,16,0.281777965747032,2
220,411,17,0.326527749264676,2
220,412,17,0.289486513556728,2
223,414,17,0.310978776296918,2
224,413,17,0.287881679991641,2
224,414,17,0.303652317136122,2
224,415,17,0.229822388840279,2
225,412,17,0.220150119243126,2
225,413,17,0.286208846800777,2
225,414,17,0.286659877224756,2
225,415,17,0.25284467849108,2
226,412,17,0.253108762940067,2
226,413,17,0.304588059821581,2
226,414,17,0.330914961698333,2
226,415,17,0.273567275913793,2
227,412,17,0.288858830138866,2
227,413,17,0.319080200365008,2
227,414,17,0.348823571143437,2
227,415,17,0.279662440153499,2
228,413,17,0.22951543659811,2
228,414,17,0.258184356760284,2
224,413,18,0.290790141990379,2
224,414,18,0.306050228428809,2
225,412,18,0.240971736557343,2
225,413,18,0.324303216997052,2
225,414,18,0.289652355387384,2
225,415,18,0.216181126884051,2
226,412,18,0.244308805826704,2
226,413,18,0.306287273192866,2
226,414,18,0.299445314309957,2
226,415,18,0.226804025125614,2
227,412,18,0.243591453349148,2
227,413,18,0.325005212441006,2
227,414,18,0.372751548917004,2
227,415,18,0.273186600488844,2
228,413,18,0.269366868132733,2
228,414,18,0.326078391155705,2
228,415,18,0.252427447673263,2
229,414,18,0.190697660615022,2
224,413,19,0.251939414335499,2
225,412,19,0.239505917121576,2
225,413,19,0.353374458464359,2
225,414,19,0.294794158749708,2
226,412,19,0.246777590300535,2
226,413,19,0.318097467983176,2
226,414,19,0.265713637111789,2
227,412,19,0.208395322831698,2
227,413,19,0.301274685607134,2
227,414,19,0.348285439016607,2
227,415,19,0.242696223083619,2
228,412,19,0.191795158558545,2
228,413,19,0.31388952300771,2
228,414,19,0.412147969446852,2
228,415,19,0.278642728411614,2
229,413,19,0.248380233368497,2
229,414,19,0.2791186080234,2
245,420,19,0.291790398349204,3
246,420,19,0.29223353827279,3
225,413,20,0.335703270643033,2
226,412,20,0.259604717492293,2
226,413,20,0.330139431501459,2
226,414,20,0.236294224370406,2
227,413,20,0.266868806369381,2
227,414,20,0.281639917320746,2
228,412,20,0.17568912803988,2
228,413,20,0.298743907709316,2
228,414,20,0.408163525839245,2
228,415,20,0.267208239208693,2
229,413,20,0.291633012308521,2
229,414,20,0.349997842478101,2
229,415,20,0.232694083462557,2
230,413,20,0.235524299961871,2
230,414,20,0.22329131567287,2
231,412,20,0.255980057148892,2
232,412,20,0.288709122614984,2
232,413,20,0.264362359477254,2
233,412,20,0.296324491858841,2
233,413,20,0.286837472367939,2
234,412,20,0.238214937042286,2
234,413,20,0.23004487739764,2
244,420,20,0.264523820313662,3
245,419,20,0.296296769115668,3
245,420,20,0.414809494113875,3
245,421,20,0.256294169725747,3
246,419,20,0.239922676864742,3
246,420,20,0.355161880563922,3
246,421,20,0.235139337757604,3
247,420,20,0.310280078375516,3
247,421,20,0.289330776277321,3
226,413,21,0.326154658141597,2
226,414,21,0.217157970832754,1
227,414,21,0.231584702660978,2
228,413,21,0.258231982407435,2
228,414,21,0.328924741961794,2
228,415,21,0.225450933853676,2
229,412,21,0.222807498453226,2
229,413,21,0.300325352418012,2
229,414,21,0.385179322573926,2
229,415,21,0.273308396839692,2
229,416,21,0.146403806697721,1
230,412,21,0.293976231834302,2
230,413,21,0.309758952043564,2
230,414,21,0.3403442980983,2
230,415,21,0.271053056289935,2
230,416,21,0.161463474426158,1
231,411,21,0.284141323714115,2
231,412,21,0.295056311792628,2
231,413,21,0.283286676529714,2
231,414,21,0.247187472353806,2
231,416,21,0.143466703360241,1
232,411,21,0.254896609006815,2
232,412,21,0.309469523778388,2
232,413,21,0.307217881164636,2
232,414,21,0.209466805677655,2
233,411,21,0.21676229168019,2
233,412,21,0.340591635843467,2
233,413,21,0.365226461129888,2
233,414,21,0.213246449581021,2
234,411,21,0.181603387836984,2
234,412,21,0.317431274212648,2
234,413,21,0.34956718603275,2
234,414,21,0.196197351166084,2
235,412,21,0.220434695439404,2
235,413,21,0.23311016014748,2
243,420,21,0.141888662165894,3
244,419,21,0.269309232149262,3
244,420,21,0.325262937382214,3
244,421,21,0.205867347828049,3
245,418,21,0.19249280833885,3
245,419,21,0.364634673600383,3
245,420,21,0.497084613203902,3
245,421,21,0.292384776789285,3
246,419,21,0.256206526287049,3
246,420,21,0.387846688566613,3
246,421,21,0.288872585518656,3
246,422,21,0.120023426071287,3
247,419,21,0.147404875660317,3
247,420,21,0.308630021643996,3
247,421,21,0.379613151612832,3
247,422,21,0.195331492405005,3
248,420,21,0.223605640233318,3
248,421,21,0.33359775538582,3
208,420,22,0.164729517415112,1
208,445,22,0.122130601866643,1
209,420,22,0.149385155721734,1
209,445,22,0.125020409309227,1
211,419,22,0.126001375161119,1
212,418,22,0.14214006292992,1
212,419,22,0.163618464298524,1
213,418,22,0.143837980845916,1
213,419,22,0.135416190684989,1
222,412,22,0.181050935040784,1
222,413,22,0.115334137018092,1
223,412,22,0.204784394314355,1
223,413,22,0.15951499190364,1
224,413,22,0.151862313547476,1
225,413,22,0.193318955506905,1
225,414,22,0.146848077200467,1
226,413,22,0.281001257863531,1
226,414,22,0.188456805610763,1
226,415,22,0.120532952189974,1
227,413,22,0.274112050193192,1
227,414,22,0.202349315231756,1
227,415,22,0.138045058101876,1
228,413,22,0.219067165729432,1
228,414,22,0.235366325077876,2
228,415,22,0.183846845528687,1
228,416,22,0.134205246188794,1
229,412,22,0.224773387184075,2
229,413,22,0.272324204126444,2
229,414,22,0.353120148814366,2
229,415,22,0.279020695157324,2
229,416,22,0.160861770775264,1
230,411,22,0.244124733407078,2
230,412,22,0.324226007861859,2
230,413,22,0.356901229495416,2
230,414,22,0.429084751888279,2
230,415,22,0.334192086718437,2
230,416,22,0.173766095325347,2
231,411,22,0.252474931998019,2
231,412,22,0.304258142690207,2
231,413,22,0.316066900702834,2
231,414,22,0.329704794475312,2
231,415,22,0.280112575535643,2
231,416,22,0.169111477366418,1
232,411,22,0.277339453283951,2
232,412,22,0.304320489420182,2
232,413,22,0.305861657246273,2
232,414,22,0.259384725630578,2
232,415,22,0.253806306728576,2
232,416,22,0.183259168125506,1
233,411,22,0.273209353394456,2
233,412,22,0.359892741955011,2
233,413,22,0.378857500766203,2
233,414,22,0.238002906342163,2
233,415,22,0.18480470516898,1
233,416,22,0.143634747464888,1
234,411,22,0.21658163455178,2
234,412,22,0.368044170597235,2
234,413,22,0.427842009853186,2
234,414,22,0.242857589705097,2
235,412,22,0.279262615544013,2
235,413,22,0.348287770836126,2
235,414,22,0.233868260582292,2
236,413,22,0.217762854237538,2
236,420,22,0.117686660268217,1
237,420,22,0.114747130896288,1
239,420,22,0.116828268040345,1
239,421,22,0.117714960077837,1
240,420,22,0.124888567291459,1
240,421,22,0.124236835512697,1
243,419,22,0.16629030550039,3
243,420,22,0.150751613736876,3
244,418,22,0.263984581161404,3
244,419,22,0.35407164894688,3
244,420,22,0.378978590505076,3
244,421,22,0.20350898325226,3
245,418,22,0.236637661344245,3
245,419,22,0.462359722212932,3
245,420,22,0.549977157590204,3
245,421,22,0.298269111569226,3
246,419,22,0.285306291324435,3
246,420,22,0.405286248982361,3
246,421,22,0.340425605582951,3
246,422,22,0.152563166635403,3
247,419,22,0.135681629473596,3
247,420,22,0.307091138529959,3
247,421,22,0.448590869687656,3
247,422,22,0.242580244504702,3
248,420,22,0.197237189572405,3
248,421,22,0.336767687369236,3
207,420,23,0.142502660865163,1
208,419,23,0.124505913352978,1
208,420,23,0.203989620718014,1
208,421,23,0.11898908746151,1
208,445,23,0.120317930165821,1
208,446,23,0.118952649837305,1
209,420,23,0.161968195583411,1
209,445,23,0.126338334858516,1
209,446,23,0.142850325733988,1
211,419,23,0.135895014513339,1
211,420,23,0.116326856182511,1
212,417,23,0.133877613769474,1
212,418,23,0.19750027298776,1
212,419,23,0.192340674780519,1
212,420,23,0.122503669435989,1
213,417,23,0.18204788210019,1
213,418,23,0.238717879892734,1
213,419,23,0.176733830291965,1
214,417,23,0.146589162795768,1
214,418,23,0.162179978969343,1
221,412,23,0.129790852747811,1
222,411,23,0.192642716069459,1
222,412,23,0.173616258255937,1
223,411,23,0.189840351858846,1
223,412,23,0.234585707274778,1
223,413,23,0.16893509524046,1
224,412,23,0.203796244574044,1
224,413,23,0.154380384206601,1
225,412,23,0.159700336224821,1
225,413,23,0.149033792916903,1
226,412,23,0.178231341274835,1
226,413,23,0.21695960129749,1
226,414,23,0.157551199454985,1
227,412,23,0.181845991281916,1
227,413,23,0.253638062417203,1
227,414,23,0.199125892721793,1
227,415,23,0.144768035304972,1
228,412,23,0.142809448231204,1
228,413,23,0.193369972891538,1
228,414,23,0.198272329009088,1
228,415,23,0.182637031611653,1
228,416,23,0.158013194141452,1
228,417,23,0.135869364498627,1
229,413,23,0.232598455308536,2
229,414,23,0.286316204713592,2
229,415,23,0.252352829448648,2
229,416,23,0.178215842918839,1
229,417,23,0.144920486838692,1
230,412,23,0.304157992219543,2
230,413,23,0.347421323231734,2
230,414,23,0.426583863677026,2
230,415,23,0.338035679005588,2
230,416,23,0.182248724777368,2
230,417,23,0.115486553221213,1
231,412,23,0.267512058804437,2
231,413,23,0.311821057771747,2
231,414,23,0.396468014172563,2
231,415,23,0.362120100670537,2
231,416,23,0.208367317443734,2
232,411,23,0.26746933233365,2
232,412,23,0.283728638766674,2
232,413,23,0.289095403828273,2
232,414,23,0.32433501453595,2
232,415,23,0.357715576243479,2
232,416,23,0.243448835498754,2
232,417,23,0.1146572851836,1
233,410,23,0.274267222183018,2
233,411,23,0.33219814549216,2
233,412,23,0.383301948769878,2
233,413,23,0.356583536751219,2
233,414,23,0.250316444396374,2
233,415,23,0.219012379747596,2
233,416,23,0.169698671918081,1
233,417,23,0.114429650135684,1
234,411,23,0.267816914764412,2
234,412,23,0.404518915484403,2
234,413,23,0.435321262076823,2
234,414,23,0.253641807460673,2
234,415,23,0.126374148308809,1
234,417,23,0.123614439907786,1
234,418,23,0.131833750407126,1
235,411,23,0.179294391884552,2
235,412,23,0.317679671875779,2
235,413,23,0.416699068751367,2
235,414,23,0.291485259744438,2
235,415,23,0.126718350778955,1
235,417,23,0.117669442489746,1
235,418,23,0.136570182255956,1
235,419,23,0.117811094637107,1
236,412,23,0.189341271820531,2
236,413,23,0.291315154688196,2
236,414,23,0.263894134828537,2
236,415,23,0.13748056934836,1
240,420,23,0.126993705688952,1
240,421,23,0.12853620430093,1
243,419,23,0.179406413436406,3
243,420,23,0.150159849761104,3
244,418,23,0.272667075810703,3
244,419,23,0.424437600462558,3
244,420,23,0.387144669568926,3
244,421,23,0.172757312515351,3
245,418,23,0.285664684918423,3
245,419,23,0.548710013888223,3
245,420,23,0.544571152010231,3
245,421,23,0.269005553875913,3
246,418,23,0.164396597182842,3
246,419,23,0.322996243933383,3
246,420,23,0.401398093033286,3
246,421,23,0.348502910628942,3
246,422,23,0.162184842815108,3
247,419,23,0.138856625509503,3
247,420,23,0.293058013125836,3
247,421,23,0.434868936197555,3
247,422,23,0.242259725312603,3
248,421,23,0.277102879594544,3
207,420,24,0.151335181013732,1
207,421,24,0.114823103460524,1
208,420,24,0.191934078472934,1
208,421,24,0.123869515054085,1
209,420,24,0.147489786866043,1
209,445,24,0.114638112445331,1
211,418,24,0.118311375915781,1
211,419,24,0.1328046705921,1
211,420,24,0.114695277354151,1
212,417,24,0.148604820563426,1
212,418,24,0.224752259486007,1
212,419,24,0.184291893304607,1
213,417,24,0.223486670330371,1
213,418,24,0.293486926594981,1
213,419,24,0.181849453680596,1
214,416,24,0.127669921572666,1
214,417,24,0.214997481163845,1
214,418,24,0.214785662447314,1
215,416,24,0.135685315632735,1
215,417,24,0.161745824794713,1
215,418,24,0.116983051393585,1
221,412,24,0.141346996979187,1
222,411,24,0.154648672996842,1
222,412,24,0.167214000451666,1
222,413,24,0.118231564093145,1
223,411,24,0.190950816132121,1
223,412,24,0.232463563082407,1
223,413,24,0.156795831253146,1
224,411,24,0.204923926625789,1
224,412,24,0.240683109119073,1
224,413,24,0.157079842159843,1
225,411,24,0.176538075221012,1
225,412,24,0.195883273919828,1
225,413,24,0.140526620475599,1
226,411,24,0.128311725453171,1
226,412,24,0.159936756814966,1
226,413,24,0.164731342829382,1
226,414,24,0.132012711666795,1
227,412,24,0.142965020634483,1
227,413,24,0.203194305385825,1
227,414,24,0.200587802237963,1
227,415,24,0.162577071345857,1
227,416,24,0.11978619287737,1
228,412,24,0.121260338557583,1
228,413,24,0.174609389610675,1
228,414,24,0.209237745628922,1
228,415,24,0.206627568098787,1
228,416,24,0.17433059585573,1
228,417,24,0.143207682963745,1
228,418,24,0.11614516268987,1
229,412,24,0.173995226035278,1
229,413,24,0.203330304637381,1
229,414,24,0.230226594444014,2
229,415,24,0.218273569819717,1
229,416,24,0.180704341866788,1
229,417,24,0.160378295084741,1
229,418,24,0.143121334980336,1
230,412,24,0.248357127156898,1
230,413,24,0.293370005866764,2
230,414,24,0.333531027661598,2
230,415,24,0.272578984851087,2
230,416,24,0.168256830182017,1
230,417,24,0.126143945904048,1
230,418,24,0.11791062093386,1
231,413,24,0.279482301207204,2
231,414,24,0.388561167488802,2
231,415,24,0.370114543685532,2
231,416,24,0.213286396711371,2
231,422,24,0.113801389651376,1
232,411,24,0.236358620275109,2
232,412,24,0.250683223119138,2
232,413,24,0.267658421698301,2
232,414,24,0.349266993711813,2
232,415,24,0.381641316412458,2
232,416,24,0.247103644619776,2
232,417,24,0.121473641159262,1
232,422,24,0.117963334187235,1
233,410,24,0.276440901942137,2
233,411,24,0.365525781962721,2
233,412,24,0.38466396690644,2
233,413,24,0.325850179041342,2
233,414,24,0.247344410873571,2
233,415,24,0.216333472425975,2
233,416,24,0.160617188816801,1
233,417,24,0.115959936137352,1
234,410,24,0.230259970082991,2
234,411,24,0.329859683820348,2
234,412,24,0.423629990081994,2
234,413,24,0.409014616410036,2
234,414,24,0.238777565050934,2
234,415,24,0.121910292029539,1
234,417,24,0.127110237780583,1
234,418,24,0.155851020380668,1
234,419,24,0.12985642633914,1
235,411,24,0.199715230663116,2
235,412,24,0.339833912268376,2
235,413,24,0.434707451807414,2
235,414,24,0.301464316707633,2
235,415,24,0.127789845401779,1
235,417,24,0.12187783498613,1
235,418,24,0.161982846005037,1
235,419,24,0.141368030462325,1
236,412,24,0.222853969967484,2
236,413,24,0.36875973299112,2
236,414,24,0.327569766391254,2
236,415,24,0.149336799908875,2
236,418,24,0.122518072543423,1
236,419,24,0.125432458305889,1
237,413,24,0.272550626157136,2
237,414,24,0.265931650459971,2
237,415,24,0.136741900742875,1
238,415,24,0.115369055426549,1
243,418,24,0.141551207840114,1
243,419,24,0.16492119769034,3
243,420,24,0.133623198127686,3
244,418,24,0.25028768528897,3
244,419,24,0.403793177878071,3
244,420,24,0.32323291183772,3
244,421,24,0.131803566298905,3
245,417,24,0.186435871807021,3
245,418,24,0.314526722133508,3
245,419,24,0.546286758779348,3
245,420,24,0.46555092321681,3
245,421,24,0.217777928626349,3
246,418,24,0.19574749842873,3
246,419,24,0.340082239270309,3
246,420,24,0.373167578494462,3
246,421,24,0.304326189423451,3
247,419,24,0.147077502332055,3
247,420,24,0.261024112521268,3
247,421,24,0.342806087113574,3
206,421,25,0.122268826945922,1
207,420,25,0.13147242437344,1
207,421,25,0.132042613130226,1
208,420,25,0.147906016650228,1
208,421,25,0.128169331363236,1
209,420,25,0.131491997525162,1
210,420,25,0.122004530513342,1
211,418,25,0.135631118494212,1
211,419,25,0.135664835662311,1
212,417,25,0.149534627708291,1
212,418,25,0.233081542362471,1
212,419,25,0.171097127678848,1
213,417,25,0.215665865431496,1
213,418,25,0.280315514495014,1
213,419,25,0.161794922550146,1
214,416,25,0.139648784641534,1
214,417,25,0.243291637887931,1
214,418,25,0.221709847410441,1
215,416,25,0.181165205974093,1
215,417,25,0.218381233931055,1
215,418,25,0.137593909909234,1
216,416,25,0.153901360171524,1
216,417,25,0.130738490068192,1
219,413,25,0.117736971040874,1
220,412,25,0.150938241736479,1
220,413,25,0.159906937789599,1
221,412,25,0.167821886957347,1
221,413,25,0.155334781448213,1
222,411,25,0.122113419418771,1
222,412,25,0.159188207418691,1
222,413,25,0.126768567336682,1
223,411,25,0.173720177323804,1
223,412,25,0.212334401950475,1
223,413,25,0.14269368163588,1
224,410,25,0.118008934213389,1
224,411,25,0.23160773821138,1
224,412,25,0.2695949389247,1
224,413,25,0.163565762822016,1
225,410,25,0.116867037484069,1
225,411,25,0.229256110003091,1
225,412,25,0.255943525309758,1
225,413,25,0.157112299203253,1
226,411,25,0.150707050074953,1
226,412,25,0.170860141799123,1
226,413,25,0.137546696452403,1
227,412,25,0.119583465901591,1
227,413,25,0.151210675983644,1
227,414,25,0.18531182880695,1
227,415,25,0.17189227813491,1
227,416,25,0.12675891030635,1
228,413,25,0.1614420640833,1
228,414,25,0.228598513344932,1
228,415,25,0.230850273727347,1
228,416,25,0.179955062304804,1
228,417,25,0.136124003900875,1
228,418,25,0.126455950421843,1
228,419,25,0.113966359993929,1
229,412,25,0.149623849247067,1
229,413,25,0.18467409972217,1
229,414,25,0.205710880382935,1
229,415,25,0.19789382052753,1
229,416,25,0.171285475100925,1
229,417,25,0.152223981110283,1
229,418,25,0.162188882280235,1
229,419,25,0.144312988969599,1
230,412,25,0.190377906919229,1
230,413,25,0.227572041681816,1
230,414,25,0.236257975176062,2
230,415,25,0.201381468808876,1
230,416,25,0.14783357714587,1
230,417,25,0.126391236541751,1
230,418,25,0.141295343643776,1
230,419,25,0.121008348950243,1
231,412,25,0.1725797762565,1
231,413,25,0.234614631258309,2
231,414,25,0.318299794545502,2
231,415,25,0.302286954369542,2
231,416,25,0.191052603587196,1
231,417,25,0.124865201988802,1
231,418,25,0.116275497268756,1
231,421,25,0.114900371480048,1
231,422,25,0.139121805207052,1
232,411,25,0.185196097542225,2
232,412,25,0.21019864370071,2
232,413,25,0.257429294756967,2
232,414,25,0.338714850882733,2
232,415,25,0.33142968141504,2
232,416,25,0.216583212651859,2
232,417,25,0.131369211917548,1
232,421,25,0.125487161849661,1
232,422,25,0.150641735574681,1
233,410,25,0.239262135990018,2
233,411,25,0.334557146018727,2
233,412,25,0.330511533367772,2
233,413,25,0.30169471931912,2
233,414,25,0.258994039869309,2
233,415,25,0.20515595444482,2
233,416,25,0.14625116673414,1
233,417,25,0.116466977337258,1
234,410,25,0.279311089125534,2
234,411,25,0.371234712096603,2
234,412,25,0.397519405684684,2
234,413,25,0.372107213010253,2
234,414,25,0.233995592060282,2
234,415,25,0.129537968098636,1
234,417,25,0.118942580616654,1
234,418,25,0.161420135558326,1
234,419,25,0.149062917107161,1
235,411,25,0.227610481373284,2
235,412,25,0.344536579841642,2
235,413,25,0.414063735834903,2
235,414,25,0.271673956232831,2
235,415,25,0.124247505353528,1
235,417,25,0.11743044276589,1
235,418,25,0.182872368730102,1
235,419,25,0.179886791811102,1
235,420,25,0.127721150940892,1
236,412,25,0.262573453492543,2
236,413,25,0.41893257499108,2
236,414,25,0.338825105904648,2
236,415,25,0.148407958467044,2
236,418,25,0.147956939819931,1
236,419,25,0.157883648612605,1
236,420,25,0.124634881815378,1
237,412,25,0.2030304420687,2
237,413,25,0.370603542726329,2
237,414,25,0.338451708583046,2
237,415,25,0.154213199813191,2
238,413,25,0.23826034863858,2
238,414,25,0.21533882185549,2
238,415,25,0.114727204438578,1
243,418,25,0.122773972070361,1
243,419,25,0.149049279496033,3
243,420,25,0.12587797715646,1
244,418,25,0.219819542607242,3
244,419,25,0.319569293620735,3
244,420,25,0.235960868394085,3
245,417,25,0.202541866995087,3
245,418,25,0.317644623921793,3
245,419,25,0.46970650824489,3
245,420,25,0.355438966673259,3
245,421,25,0.163278972574882,3
246,418,25,0.221471624959758,3
246,419,25,0.338082621594495,3
246,420,25,0.326381504139474,3
246,421,25,0.226519331160674,3
247,419,25,0.154228709946053,3
247,420,25,0.215349185497797,3
206,444,26,0.118355079866467,1
207,421,26,0.148001126622134,1
207,444,26,0.129209735059137,1
207,445,26,0.132742441630789,1
208,420,26,0.123188765076862,1
208,421,26,0.142312923772867,1
209,420,26,0.141191824989361,1
209,421,26,0.158141879959062,1
210,420,26,0.143705396885575,1
210,421,26,0.147814251308339,1
211,418,26,0.137288853742533,1
211,419,26,0.136818049960105,1
212,417,26,0.130237749491734,1
212,418,26,0.205520283579402,1
212,419,26,0.158807496663143,1
213,417,26,0.174091972991594,1
213,418,26,0.215611409201916,1
213,419,26,0.135682972036349,1
214,416,26,0.133365826492466,1
214,417,26,0.226472435679232,1
214,418,26,0.188969735243799,1
215,416,26,0.196755763056611,1
215,417,26,0.239743550728946,1
215,418,26,0.14267510951779,1
216,415,26,0.119533838187177,1
216,416,26,0.205031472968465,1
216,417,26,0.168335193450103,1
217,415,26,0.123196808676517,1
217,416,26,0.151553170808182,1
218,414,26,0.122133687405603,1
218,415,26,0.119982972535688,1
219,412,26,0.124625165900715,1
219,413,26,0.183551917466968,1
219,414,26,0.177350985191392,1
219,415,26,0.11671244256069,1
220,412,26,0.193821768811824,1
220,413,26,0.244983337618542,1
220,414,26,0.176856451023452,1
221,412,26,0.184161758932447,1
221,413,26,0.196397581446216,1
221,414,26,0.121279546626451,1
222,412,26,0.144477276253909,1
222,413,26,0.130250009209509,1
223,411,26,0.146037263512282,1
223,412,26,0.186149599742002,1
223,413,26,0.137332475255155,1
224,410,26,0.117162318851776,1
224,411,26,0.232278784050807,1
224,412,26,0.285623724977574,1
224,413,26,0.177229518592798,1
225,410,26,0.126055631183974,1
225,411,26,0.264084943615662,1
225,412,26,0.308180263121572,1
225,413,26,0.177110242491329,1
226,411,26,0.173891330521143,1
226,412,26,0.195629729766143,1
226,413,26,0.130838193017939,1
227,412,26,0.127043451172029,1
227,413,26,0.128876638173873,1
227,414,26,0.157990712103764,1
227,415,26,0.159968248155342,1
227,416,26,0.122973224870593,1
228,412,26,0.129503885847683,1
228,413,26,0.163939996301122,1
228,414,26,0.225017969142538,1
228,415,26,0.222294333282866,1
228,416,26,0.162739827637554,1
228,417,26,0.117761643575686,1
228,418,26,0.119878664831234,1
228,419,26,0.121864821548914,1
229,412,26,0.141923486359421,1
229,413,26,0.172830906152602,1
229,414,26,0.194386622648195,1
229,415,26,0.180194262235387,1
229,416,26,0.146344887035828,1
229,417,26,0.127109566499206,1
229,418,26,0.152510641811889,1
229,419,26,0.154835383434509,1
230,411,26,0.114433772038874,1
230,412,26,0.154685487480767,1
230,413,26,0.173746793041549,1
230,414,26,0.168899623319288,1
230,415,26,0.145991251295809,1
230,416,26,0.119234529131209,1
230,418,26,0.141518821457903,1
230,419,26,0.132571794838699,1
231,412,26,0.159449795172031,1
231,413,26,0.195545242527602,1
231,414,26,0.22217986214283,2
231,415,26,0.196383460983572,1
231,416,26,0.142725526282244,1
231,417,26,0.121934552374033,1
231,418,26,0.132856630126034,1
231,422,26,0.143889704842525,1
232,412,26,0.184109634522385,1
232,413,26,0.247706290419972,1
232,414,26,0.292349563959171,2
232,415,26,0.241174958161505,2
232,416,26,0.16405159388579,1
232,417,26,0.13010851016141,1
232,418,26,0.121486572158414,1
232,421,26,0.123342759380062,1
232,422,26,0.161773606422217,1
233,411,26,0.272845071367338,2
233,412,26,0.255319422059239,2
233,413,26,0.274069417937336,2
233,414,26,0.277771122539801,1
233,415,26,0.199709554213579,1
233,416,26,0.129640191297763,1
234,410,26,0.303368612427948,2
234,411,26,0.370113083354116,2
234,412,26,0.328038415007157,2
234,413,26,0.311672292397166,2
234,414,26,0.246000693987175,2
234,415,26,0.153936231472516,1
234,418,26,0.144738781569185,1
234,419,26,0.154197960548252,1
234,420,26,0.115782918060616,1
235,411,26,0.242682232166503,2
235,412,26,0.319927875644583,2
235,413,26,0.361159273259947,2
235,414,26,0.236626614643695,2
235,415,26,0.123160335721713,1
235,418,26,0.189916665952203,1
235,419,26,0.215327563171346,1
235,420,26,0.158105418781124,1
236,412,26,0.282338968548136,2
236,413,26,0.418100138976443,2
236,414,26,0.302102976164847,2
236,415,26,0.137210408036383,2
236,418,26,0.168342530437782,1
236,419,26,0.190281159962913,1
236,420,26,0.142141688137464,1
237,412,26,0.242854197967614,2
237,413,26,0.430560911412622,2
237,414,26,0.367375951205711,2
237,415,26,0.168630898784995,2
238,413,26,0.25375891661875,2
238,414,26,0.231991475621557,2
238,415,26,0.125915262715035,1
239,414,26,0.118888371701264,1
243,418,26,0.11401983874361,1
243,419,26,0.12663919846083,1
244,418,26,0.179332195625243,1
244,419,26,0.216943678974308,3
244,420,26,0.1573111280363,1
245,418,26,0.279871785728115,3
245,419,26,0.354813332430126,3
245,420,26,0.250015592570927,3
246,419,26,0.309783165280592,3
246,420,26,0.261868796476814,3
206,422,27,0.200305487200007,1
206,444,27,0.127145332842034,1
207,421,27,0.147189912520495,1
207,422,27,0.120850538942375,1
207,444,27,0.133774625074041,1
207,445,27,0.135454536161527,1
208,421,27,0.137765310420765,1
209,420,27,0.142296259507111,1
209,421,27,0.189843272521679,1
209,422,27,0.11977051786838,1
210,420,27,0.152549305263816,1
210,421,27,0.179331076822948,1
211,418,27,0.122542062019993,1
211,419,27,0.131286514762679,1
212,418,27,0.156069481249769,1
212,419,27,0.137505960272014,1
213,417,27,0.123242526471333,1
213,418,27,0.140065509054102,1
214,417,27,0.168052230684503,1
214,418,27,0.134381345669962,1
215,416,27,0.163872408865663,1
215,417,27,0.199763515814777,1
215,418,27,0.125987973087317,1
216,415,27,0.115427645336187,1
216,416,27,0.21231723127947,1
216,417,27,0.187231858420587,1
217,415,27,0.133204754292644,1
217,416,27,0.202427278086389,1
217,417,27,0.15673730022784,1
218,414,27,0.130992210874871,1
218,415,27,0.13545830475873,1
218,416,27,0.131047055741039,1
219,412,27,0.127629574028863,1
219,413,27,0.216129944623291,1
219,414,27,0.216633405655854,1
219,415,27,0.134777154368054,1
220,412,27,0.200076945333388,1
220,413,27,0.290311577253086,1
220,414,27,0.22074021090389,1
221,412,27,0.175533131669416,1
221,413,27,0.211950264126846,1
221,414,27,0.139768896900508,1
222,412,27,0.129586771432413,1
222,413,27,0.137930304317051,1
223,411,27,0.119716850688838,1
223,412,27,0.161558890596587,1
223,413,27,0.152190004851127,1
224,410,27,0.114033370362941,1
224,411,27,0.203049261500981,1
224,412,27,0.26423255485735,1
224,413,27,0.194619804600119,1
225,410,27,0.137946509285023,1
225,411,27,0.264302415227997,1
225,412,27,0.302856648497946,1
225,413,27,0.182613630978397,1
226,410,27,0.12271624187196,1
226,411,27,0.198653640384815,1
226,412,27,0.20633392371549,1
226,413,27,0.131267094710218,1
227,411,27,0.143940769334623,1
227,412,27,0.159257007871375,1
227,413,27,0.137279479356991,1
227,414,27,0.132656494060832,1
227,415,27,0.13056422777816,1
228,411,27,0.151368662644506,1
228,412,27,0.188651218118963,1
228,413,27,0.188066661585341,1
228,414,27,0.19718026020091,1
228,415,27,0.180053281369403,1
228,416,27,0.130569291830652,1
229,411,27,0.134729693597031,1
229,412,27,0.170348884481096,1
229,413,27,0.176803302026026,1
229,414,27,0.179234282759167,1
229,415,27,0.154845747076817,1
229,416,27,0.116270421439399,1
229,418,27,0.12716410516685,1
229,419,27,0.136178413022991,1
230,411,27,0.114157003904926,1
230,412,27,0.146668232675829,1
230,413,27,0.141876096249596,1
230,414,27,0.129020056851173,1
230,418,27,0.124945096249501,1
230,419,27,0.122252351110026,1
231,412,27,0.16033337811683,1
231,413,27,0.163076021838644,1
231,414,27,0.142965750800191,1
231,415,27,0.114684878381244,1
231,418,27,0.128895057192702,1
231,422,27,0.129821979005333,1
232,412,27,0.16573448452044,1
232,413,27,0.21274927739504,1
232,414,27,0.218251287988755,1
232,415,27,0.158679870763496,1
232,416,27,0.114060174510546,1
232,418,27,0.122271994922946,1
232,422,27,0.147803852335433,1
233,412,27,0.177501352219784,1
233,413,27,0.218895576788042,1
233,414,27,0.261821194383396,1
233,415,27,0.192327920434361,1
233,416,27,0.115370668857227,1
234,411,27,0.297510752043357,2
234,412,27,0.229641119314824,2
234,413,27,0.227649651230461,2
234,414,27,0.248064495584099,1
234,415,27,0.185550015927034,1
234,418,27,0.11857482441399,1
234,419,27,0.135204489737121,1
235,412,27,0.259403309525535,2
235,413,27,0.27406590843119,2
235,414,27,0.204473744136181,1
235,415,27,0.13011486966919,1
235,418,27,0.171046322277808,1
235,419,27,0.208480493128481,1
235,420,27,0.161341925389501,1
236,412,27,0.267241096665555,2
236,413,27,0.357117641189788,2
236,414,27,0.240291881621955,2
236,415,27,0.123560266322996,1
236,418,27,0.160756462037177,1
236,419,27,0.187026834955887,1
236,420,27,0.139842031239975,1
237,412,27,0.249934473516136,2
237,413,27,0.409734182938449,2
237,414,27,0.327203929817791,2
237,415,27,0.16548221226831,2
238,413,27,0.260340653864805,2
238,414,27,0.240678280603906,2
238,415,27,0.142571791070102,1
239,414,27,0.121724453079976,1
241,417,27,0.118034784434827,1
242,417,27,0.114120118759804,1
242,418,27,0.120005525234574,1
244,419,27,0.14558195808585,1
245,419,27,0.240119162101404,3
206,422,28,0.22665457669279,1
207,421,28,0.14774465002875,1
207,422,28,0.132195205986341,1
207,444,28,0.123131823928501,1
208,421,28,0.130432150223068,1
209,420,28,0.13695861863577,1
209,421,28,0.196622119178306,1
209,422,28,0.141511307817229,1
210,420,28,0.155895925571713,1
210,421,28,0.188199787281531,1
210,422,28,0.129959815448026,1
211,419,28,0.119915915059211,1
215,417,28,0.131844302479294,1
216,416,28,0.17056261104996,1
216,417,28,0.178207139814674,1
216,418,28,0.117594470959143,1
217,415,28,0.116686144818334,1
217,416,28,0.213123075130094,1
217,417,28,0.229205987660294,1
217,418,28,0.140322138746747,1
218,414,28,0.121334450376949,1
218,415,28,0.12811369744703,1
218,416,28,0.163963844455296,1
218,417,28,0.183423808715804,1
218,418,28,0.121607343921898,1
219,412,28,0.120089977142516,1
219,413,28,0.20866357629134,1
219,414,28,0.217083164178278,1
219,415,28,0.137209159688559,1
220,412,28,0.183107493864959,1
220,413,28,0.282116315114647,1
220,414,28,0.232193825737616,1
220,415,28,0.115481171193333,1
221,411,28,0.114966745898282,1
221,412,28,0.160338241962595,1
221,413,28,0.207614163292752,1
221,414,28,0.150697652135678,1
222,412,28,0.119917398944359,1
222,413,28,0.147098948005512,1
222,414,28,0.119339060596122,1
223,412,28,0.140812374358502,1
223,413,28,0.175724164217,1
223,414,28,0.148107295071457,1
224,411,28,0.159489542095655,1
224,412,28,0.214705085128371,1
224,413,28,0.207098901840197,1
224,414,28,0.146020139948741,1
225,410,28,0.149790680334489,1
225,411,28,0.23659738446164,1
225,412,28,0.248563858267205,1
225,413,28,0.17379016723998,1
226,410,28,0.171341686083579,1
226,411,28,0.230574600841961,1
226,412,28,0.200650007645542,1
226,413,28,0.13225539754979,1
227,410,28,0.137914735299856,1
227,411,28,0.19102775439939,1
227,412,28,0.198421329920994,1
227,413,28,0.157243269732917,1
227,414,28,0.118573258090778,1
228,410,28,0.115944355343291,1
228,411,28,0.213761781694774,1
228,412,28,0.276529040009218,1
228,413,28,0.227072160816595,1
228,414,28,0.166980724284812,1
228,415,28,0.132047830281979,1
229,411,28,0.193561558951836,1
229,412,28,0.246935635845728,1
229,413,28,0.20149115854121,1
229,414,28,0.156455562256331,1
229,415,28,0.122157971303828,1
230,411,28,0.13467977146096,1
230,412,28,0.171852860963542,1
230,413,28,0.137811652389493,1
231,412,28,0.16089990426821,1
231,413,28,0.137092768919324,1
232,412,28,0.14971106871858,1
232,413,28,0.164917252440143,1
232,414,28,0.149349436486371,1
232,422,28,0.116428584753254,1
233,412,28,0.128612223972631,1
233,413,28,0.160179489805426,1
233,414,28,0.205743290318879,1
233,415,28,0.165424800045299,1
234,412,28,0.152008370242817,1
234,413,28,0.158181438452825,1
234,414,28,0.214478074254367,1
234,415,28,0.189631406697683,1
235,412,28,0.193468745468851,1
235,413,28,0.193241310627661,1
235,414,28,0.176147059707487,1
235,415,28,0.14012648966759,1
235,418,28,0.146500329893578,1
235,419,28,0.174721364055063,1
235,420,28,0.139736345642168,1
236,412,28,0.224694411518943,1
236,413,28,0.272468093878394,2
236,414,28,0.19108145690953,1
236,415,28,0.121113834341323,1
236,418,28,0.135897322779126,1
236,419,28,0.157443547120514,1
236,420,28,0.120688347940259,1
237,412,28,0.225020348069522,2
237,413,28,0.340696025985985,2
237,414,28,0.263709214474541,2
237,415,28,0.153047926004348,1
238,413,28,0.255584283781399,2
238,414,28,0.244735646567387,1
238,415,28,0.162803670029543,1
239,414,28,0.154689279631703,1
239,415,28,0.136119246046906,1
240,416,28,0.123647862654229,1
240,417,28,0.143674894801964,1
241,416,28,0.115468817260627,1
241,417,28,0.141602013241155,1
241,418,28,0.118865135944136,1
242,417,28,0.120935426594369,1
242,418,28,0.122207351704051,1
205,423,29,0.157420935537297,1
205,441,29,0.120081156269688,1
206,422,29,0.213057572199963,1
206,423,29,0.12439384469366,1
207,421,29,0.161799621519783,1
207,422,29,0.148578852573325,1
208,421,29,0.145847502866254,1
208,422,29,0.128932731387864,1
209,420,29,0.133531597661925,1
209,421,29,0.192579026776731,1
209,422,29,0.164454527587969,1
210,419,29,0.115833393709401,1
210,420,29,0.168272740728332,1
210,421,29,0.188490652324391,1
210,422,29,0.146385788092345,1
211,419,29,0.115863660255686,1
211,420,29,0.134268888374057,1
211,421,29,0.116766557261149,1
216,417,29,0.138314854330999,1
216,418,29,0.128571711552701,1
217,416,29,0.165669087582105,1
217,417,29,0.236378169873099,1
217,418,29,0.200306429349307,1
217,419,29,0.119036277364609,1
218,416,29,0.156915284007609,1
218,417,29,0.235658320699896,1
218,418,29,0.205357715717566,1
219,413,29,0.168248692367432,1
219,414,29,0.179035559917916,1
219,415,29,0.125608263365401,1
219,417,29,0.135748333644086,1
219,418,29,0.122354986499472,1
220,411,29,0.134997193337233,1
220,412,29,0.159748574269017,1
220,413,29,0.228793985771096,1
220,414,29,0.208272537224083,1
220,415,29,0.118276975689439,1
221,410,29,0.161401080588719,1
221,411,29,0.160050521343026,1
221,412,29,0.151843270354735,1
221,413,29,0.190113598709783,1
221,414,29,0.160582270408344,1
222,411,29,0.132958134936319,1
222,412,29,0.118596187649384,1
222,413,29,0.156706751036765,1
222,414,29,0.147149400100565,1
223,412,29,0.121402308680332,1
223,413,29,0.187620082816808,1
223,414,29,0.181522221674729,1
224,411,29,0.115112979246618,1
224,412,29,0.152332340056731,1
224,413,29,0.193987940394736,1
224,414,29,0.163320486028444,1
225,410,29,0.140725378647449,1
225,411,29,0.180986009177099,1
225,412,29,0.172153665681524,1
225,413,29,0.150410638128085,1
226,410,29,0.196469679421452,1
226,411,29,0.23883543657173,1
226,412,29,0.18169928685893,1
226,413,29,0.132954578322709,1
227,410,29,0.165213958808667,1
227,411,29,0.224152110381458,1
227,412,29,0.220184531246334,1
227,413,29,0.170462060165843,1
228,410,29,0.121951440400248,1
228,411,29,0.244228511152551,1
228,412,29,0.331254983380957,4
228,413,29,0.246485476909852,1
228,414,29,0.141523249559616,1
229,411,29,0.238093588212356,1
229,412,29,0.326272450357918,4
229,413,29,0.228084241149143,1
229,414,29,0.134283774333008,1
230,411,29,0.170296265442651,1
230,412,29,0.220671222021346,1
230,413,29,0.154864060103849,1
231,411,29,0.130603786271924,1
231,412,29,0.165186200734895,1
231,413,29,0.125140203592811,1
232,411,29,0.116252720809412,1
232,412,29,0.136970277733366,1
232,413,29,0.126547739317464,1
233,413,29,0.118981526713372,1
233,414,29,0.148454594857429,1
233,415,29,0.130628341038073,1
234,413,29,0.114535135526764,1
234,414,29,0.165934031742329,1
234,415,29,0.164854540627315,1
235,412,29,0.127275714528385,1
235,413,29,0.132535380768227,1
235,414,29,0.157767575818758,1
235,415,29,0.155919926825148,1
235,416,29,0.120211514402307,1
235,418,29,0.121073557458718,1
235,419,29,0.127512771069308,1
236,412,29,0.159009422812016,1
236,413,29,0.185073594579401,1
236,414,29,0.171382575363229,1
236,415,29,0.146227707216553,1
236,419,29,0.113825155367486,1
237,412,29,0.171901405206261,1
237,413,29,0.243759556338126,2
237,414,29,0.203820952439455,1
237,415,29,0.141237248362521,1
238,412,29,0.131147559517691,1
238,413,29,0.225482448747785,1
238,414,29,0.230015835645446,1
238,415,29,0.169219377015081,1
239,413,29,0.143413766346408,1
239,414,29,0.200728724219615,1
239,415,29,0.192397969234868,1
239,416,29,0.145537535746322,1
239,417,29,0.128009613503035,1
240,414,29,0.114856490876367,1
240,415,29,0.139733448533069,1
240,416,29,0.160319681621371,1
240,417,29,0.183743550634731,1
240,418,29,0.130349547283129,1
241,416,29,0.130462828959672,1
241,417,29,0.169278296676973,1
241,418,29,0.134296634670962,1
242,415,29,0.123763299497297,1
242,416,29,0.116411331644185,1
242,417,29,0.126843244445629,1
242,418,29,0.118169523561694,1
243,416,29,0.141309452329554,1
205,441,30,0.149819062582173,1
206,423,30,0.13630209367244,1
206,441,30,0.128311807891235,1
206,442,30,0.155896738175485,1
207,421,30,0.160484063120611,1
207,422,30,0.157370365673582,1
207,442,30,0.132808721834093,1
207,443,30,0.122140294227574,1
208,421,30,0.177938533049043,1
208,422,30,0.186090044129331,1
208,423,30,0.119864779905915,1
209,420,30,0.131114219209313,1
209,421,30,0.203273822786804,1
209,422,30,0.214858537695723,1
209,423,30,0.135724485489912,1
210,419,30,0.116398918827148,1
210,420,30,0.185723654043154,1
210,421,30,0.20632662205841,1
210,422,30,0.180967637265736,1
210,423,30,0.116937545582361,1
211,419,30,0.127730018921184,1
211,420,30,0.201983855518013,1
211,421,30,0.186253565917334,1
211,422,30,0.134004709710139,1
212,420,30,0.144136653951106,1
212,421,30,0.132682850687519,1
216,418,30,0.132522049355622,1
216,419,30,0.140262512472879,1
217,416,30,0.115327954163306,1
217,417,30,0.20204014893873,1
217,418,30,0.251581091402709,1
217,419,30,0.176453882404128,1
218,416,30,0.133272141521377,1
218,417,30,0.25684346632179,1
218,418,30,0.318761070843127,5
218,419,30,0.176048404898837,1
219,412,30,0.124111941846023,1
219,413,30,0.128293318211209,1
219,414,30,0.12577277441017,1
219,417,30,0.173479210863283,1
219,418,30,0.207808976214405,1
220,412,30,0.159379275296874,1
220,413,30,0.171261132318368,1
220,414,30,0.163646092826767,1
221,411,30,0.204652752503314,1
221,412,30,0.150218074587887,1
221,413,30,0.167742946622814,1
221,414,30,0.167573830823338,1
221,415,30,0.113855622120497,1
222,411,30,0.163194450005742,1
222,412,30,0.119851519154508,1
222,413,30,0.163847559677857,1
222,414,30,0.182411669498924,1
222,415,30,0.123828590443836,1
223,413,30,0.18249390735601,1
223,414,30,0.200255341303477,1
223,415,30,0.124986515488134,1
224,413,30,0.167415879493075,1
224,414,30,0.161993186093613,1
225,411,30,0.133539146633196,1
225,412,30,0.120855673656064,1
225,413,30,0.12815584685137,1
226,411,30,0.230540000408893,1
226,412,30,0.170570748864545,1
226,413,30,0.131615277761159,1
227,411,30,0.264709682816959,1
227,412,30,0.246276555302421,4
227,413,30,0.178393261409028,1
228,411,30,0.259872240786227,4
228,412,30,0.349243746177818,4
228,413,30,0.247359579477313,4
228,414,30,0.125534728612481,1
229,411,30,0.250165041003751,4
229,412,30,0.374850210038054,4
229,413,30,0.251495450031275,4
229,414,30,0.122970751728679,1
230,411,30,0.19249926206156,1
230,412,30,0.269317852815364,4
230,413,30,0.179744138630109,1
231,411,30,0.144275832956552,1
231,412,30,0.164196508225105,1
231,413,30,0.117429571277787,1
232,411,30,0.124678326675007,1
232,412,30,0.116927912105761,1
234,415,30,0.117916945111041,1
235,414,30,0.133093922204283,1
235,415,30,0.146613222933534,1
235,416,30,0.119952011154294,1
236,413,30,0.123082125552889,1
236,414,30,0.163617451488026,1
236,415,30,0.166746482414925,1
236,416,30,0.115694344249483,1
237,413,30,0.158012982157859,1
237,414,30,0.167010060458663,1
237,415,30,0.140507259307469,1
238,413,30,0.171652430476683,1
238,414,30,0.197255479045705,1
238,415,30,0.163963762017232,1
239,413,30,0.141389958987299,1
239,414,30,0.220893121735394,1
239,415,30,0.224102600435706,1
239,416,30,0.168945988841749,1
239,417,30,0.142288427891049,1
240,414,30,0.137652994447255,1
240,415,30,0.167581733100597,1
240,416,30,0.180184251899067,1
240,417,30,0.203860357833957,1
240,418,30,0.146038853389227,1
241,416,30,0.139607106311844,1
241,417,30,0.187941697257469,1
241,418,30,0.153310302807727,1
242,416,30,0.125762822958181,1
242,417,30,0.131678649078498,1
242,418,30,0.117142298179136,1
243,417,30,0.140455653079523,1
204,427,31,0.162294720977303,1
205,426,31,0.116284577232642,1
205,427,31,0.131202062854737,1
206,441,31,0.185538780796623,1
207,422,31,0.13862098219253,1
207,441,31,0.138764247770569,1
207,442,31,0.194561179359883,1
208,421,31,0.183583055501356,1
208,422,31,0.220373220197533,1
208,423,31,0.158826257211093,1
208,442,31,0.13558305710301,1
209,420,31,0.129511493703286,1
209,421,31,0.210296109045868,1
209,422,31,0.249701621316467,1
209,423,31,0.174272759665533,1
209,441,31,0.125320636960762,1
209,442,31,0.139252057347874,1
210,420,31,0.178578181763023,1
210,421,31,0.208193867757475,1
210,422,31,0.201731218183029,1
210,423,31,0.150299382072538,1
211,419,31,0.129072958534408,1
211,420,31,0.248284770090604,1
211,421,31,0.248310632088908,1
211,422,31,0.18615234375184,1
211,423,31,0.138064807906592,1
212,420,31,0.209115148451168,1
212,421,31,0.208114656555018,1
212,422,31,0.136161819418432,1
216,418,31,0.120194237739505,1
216,419,31,0.150891475800565,1
216,420,31,0.128127017082768,1
217,417,31,0.157316851593302,1
217,418,31,0.257347186445411,5
217,419,31,0.212923810552995,1
217,420,31,0.119014384170234,1
218,417,31,0.243948598595312,5
218,418,31,0.399619409368488,5
218,419,31,0.253594040491127,5
219,413,31,0.11428914034435,1
219,417,31,0.202071993585094,1
219,418,31,0.309749883856545,5
219,419,31,0.188144883531032,1
220,413,31,0.138501941628386,1
220,414,31,0.122059010296655,1
220,418,31,0.131563636202614,1
221,412,31,0.161307595824357,1
221,413,31,0.147304748743385,1
221,414,31,0.164639059305378,1
221,415,31,0.131968348211598,1
222,412,31,0.130751833257663,1
222,413,31,0.161331279102403,1
222,414,31,0.201467133734042,1
222,415,31,0.148142189926182,1
223,413,31,0.165513998030343,1
223,414,31,0.194573462631391,1
223,415,31,0.128811147020608,1
224,413,31,0.138362197333359,1
224,414,31,0.143125621759654,1
226,412,31,0.170660712345896,1
226,413,31,0.133435145127265,1
227,412,31,0.281042382680507,4
227,413,31,0.189060228684131,1
228,411,31,0.269860248167779,4
228,412,31,0.349937380046729,4
228,413,31,0.242806242568209,4
228,414,31,0.118260264316218,1
229,411,31,0.232571297854943,4
229,412,31,0.371293313783107,4
229,413,31,0.266251745684886,4
229,414,31,0.125370017360985,1
230,411,31,0.190038591848581,1
230,412,31,0.297529901227894,4
230,413,31,0.219639121016157,1
230,414,31,0.11866435215129,1
231,411,31,0.144861637837997,1
231,412,31,0.166937644508037,1
231,413,31,0.129131807535103,1
235,414,31,0.115236094606487,1
235,415,31,0.129372809326223,1
236,414,31,0.163938583077171,1
236,415,31,0.186753588104951,1
236,416,31,0.125628284038041,1
237,414,31,0.159909681799437,1
237,415,31,0.175411158665574,1
237,416,31,0.116433354384089,1
238,413,31,0.125183518906911,1
238,414,31,0.171828871486973,1
238,415,31,0.177794160445576,1
238,416,31,0.130853502944075,1
239,414,31,0.204452757760507,1
239,415,31,0.221175059913629,1
239,416,31,0.178651787177141,1
239,417,31,0.153609694301759,1
239,418,31,0.115841790615044,1
240,415,31,0.195007628582888,1
240,416,31,0.196424055841566,1
240,417,31,0.205459043874857,1
240,418,31,0.160113186048389,1
241,416,31,0.16292301679221,1
241,417,31,0.194127449152438,1
241,418,31,0.173411694089021,1
241,419,31,0.123984575037434,1
242,417,31,0.137312572351178,1
242,418,31,0.127251937035409,1
243,418,31,0.11876923692219,1
208,422,32,0.214709466122619,1
208,442,32,0.143619731960408,1
209,421,32,0.211791323539817,1
209,422,32,0.258101565390485,1
209,423,32,0.204557030134363,1
209,441,32,0.139429428730598,1
209,442,32,0.154970888057683,1
210,420,32,0.15869796003007,1
210,421,32,0.205105172597512,1
210,422,32,0.211744216074782,1
210,441,32,0.133293846285892,1
210,442,32,0.129536707973947,1
211,420,32,0.248211235337684,1
211,421,32,0.279272531665402,1
211,422,32,0.227154834417731,1
211,423,32,0.183783544872546,1
212,420,32,0.243349250317669,1
212,421,32,0.262410155464998,1
216,419,32,0.14416878124226,1
216,420,32,0.14537762945626,1
217,418,32,0.221867068574996,5
217,419,32,0.215283753228863,1
217,420,32,0.140438435301053,1
218,417,32,0.212658454202452,5
218,418,32,0.39526455976331,5
218,419,32,0.30679429083904,5
218,420,32,0.132689846146077,1
219,417,32,0.207410706151265,5
219,418,32,0.367535056668867,5
219,419,32,0.276230590664488,5
219,420,32,0.116288840458228,1
220,417,32,0.121963335035169,1
220,418,32,0.168934471066548,5
220,419,32,0.133386424231552,1
221,413,32,0.137520481148111,1
221,414,32,0.150217038223657,1
221,415,32,0.145414832576772,1
222,413,32,0.14459919037342,1
222,414,32,0.188456935156292,1
222,415,32,0.158787558428567,1
223,414,32,0.164909962559929,1
223,415,32,0.121697707816702,1
224,414,32,0.115211798931395,1
226,413,32,0.132534014651741,1
227,412,32,0.307934126616764,4
227,413,32,0.203695552367532,1
228,411,32,0.271318601070338,4
228,412,32,0.358840290524927,4
228,413,32,0.245659659494053,4
228,414,32,0.114646485797241,1
229,411,32,0.204501160680831,4
229,412,32,0.328989962247135,4
229,413,32,0.26445073308166,4
229,414,32,0.130766142150167,1
230,412,32,0.279985997777093,4
230,413,32,0.258337408914183,1
230,414,32,0.147663107006774,1
231,412,32,0.167630630649304,1
231,413,32,0.163664535399329,1
231,414,32,0.126157536407711,1
231,415,32,0.118708291639301,1
231,416,32,0.121378013005241,1
235,415,32,0.117957728398895,1
236,414,32,0.151392652121075,1
236,415,32,0.193668728434791,1
236,416,32,0.142223360704969,1
237,414,32,0.15589369974399,1
237,415,32,0.216089573525755,1
237,416,32,0.159443777193373,1
238,414,32,0.147866964561714,1
238,415,32,0.193568460195464,1
238,416,32,0.159391900097503,1
238,417,32,0.123445053240386,1
239,415,32,0.18910011693015,1
239,416,32,0.172785306126448,1
239,417,32,0.159392653816944,1
239,418,32,0.134706186971978,1
240,416,32,0.205852320546703,1
240,417,32,0.195112925544108,1
240,418,32,0.167097362368239,1
240,419,32,0.135451061985981,1
240,420,32,0.115627251442407,1
241,417,32,0.196346893813838,1
241,418,32,0.184868806652026,1
241,419,32,0.172051572027926,1
241,420,32,0.142665370049394,1
242,418,32,0.151484653000289,1
242,419,32,0.143318138192387,1
217,418,33,0.185865741934566,5
217,419,33,0.201430507679977,5
218,417,33,0.183018331210514,5
218,418,33,0.340124047145528,5
218,419,33,0.33986267137578,5
218,420,33,0.170211566220518,5
219,417,33,0.192133048628377,5
219,418,33,0.365311490104276,5
219,419,33,0.357001709718336,5
219,420,33,0.161798903130941,5
220,418,33,0.181872253693673,5
220,419,33,0.172664157503244,5
227,412,33,0.287870609737358,4
228,411,33,0.241464551302809,4
228,412,33,0.342817863979833,4
228,413,33,0.246727538618935,4
229,412,33,0.264034727057934,4
230,413,33,0.259146974254546,1
231,413,33,0.213787667246811,1
236,415,33,0.185644678378022,1
237,415,33,0.219095194671128,1
238,415,33,0.199725123230773,1
238,416,33,0.196012371927757,1
239,416,33,0.182302309518845,1
239,417,33,0.178522783384142,1
240,417,33,0.193503875860901,1
240,418,33,0.173596367128825,1
241,418,33,0.186832987737267,1
241,419,33,0.201730629339716,1
217,419,34,0.197751037801008,5
218,418,34,0.29283342828628,5
218,419,34,0.365258164453856,5
218,420,34,0.226020816411939,5
219,417,34,0.16904980191782,5
219,418,34,0.322305436512374,5
219,419,34,0.394415895226968,5
219,420,34,0.211535577112141,5
220,418,34,0.179579686469671,5
220,419,34,0.198406962144158,5
228,412,34,0.278600708552803,4
217,419,35,0.20785000681645,5
218,418,35,0.268336251012693,5
218,419,35,0.35787425773945,5
218,420,35,0.268573366437947,5
219,418,35,0.278892303761371,5
219,419,35,0.367022810094075,5
219,420,35,0.234718126358991,5
220,419,35,0.20707059025371,5
218,419,36,0.309355947680188,5
219,419,36,0.311816959422289,5
