x,y,z,signal,mito.p
654,790,34,0.253162606772603,1
653,790,35,0.232395610564094,1
654,789,35,0.232007680589529,1
654,790,35,0.270321147605683,1
654,791,35,0.225743117905557,1
655,786,35,0.232884044315311,1
655,787,35,0.250866636034252,1
655,789,35,0.214314634904427,1
655,790,35,0.238012634033693,1
655,791,35,0.223070758521576,1
653,789,36,0.195126834023159,1
653,790,36,0.229736464824055,1
653,791,36,0.212400470170187,1
654,786,36,0.233217235415505,1
654,787,36,0.219203730270569,1
654,788,36,0.215083852700987,1
654,789,36,0.264029874989036,1
654,790,36,0.296526206024121,2
654,791,36,0.247919475252988,1
654,792,36,0.19146864494152,1
655,785,36,0.215350009878435,1
655,786,36,0.283781281358851,1
655,787,36,0.26711044411128,1
655,788,36,0.227651394206667,1
655,789,36,0.265304673654086,2
655,790,36,0.298670349402663,2
655,791,36,0.254123646166786,1
655,792,36,0.195336674226159,1
656,786,36,0.205244775570144,1
656,787,36,0.203510584906071,1
656,789,36,0.187380694456365,1
656,790,36,0.215991189585029,1
656,791,36,0.207980682924458,1
653,789,37,0.218731784132114,1
653,790,37,0.239657579605256,2
653,791,37,0.243813494385591,1
654,783,37,0.282316356964919,3
654,784,37,0.238958292840542,3
654,785,37,0.212218588247686,1
654,786,37,0.238585013287603,1
654,787,37,0.227173653850013,1
654,788,37,0.247271111657976,1
654,789,37,0.293475055513792,2
654,790,37,0.323587018652389,2
654,791,37,0.277930322217887,2
654,792,37,0.23784486079697,1
654,793,37,0.206907669085886,1
655,783,37,0.284535448320332,3
655,784,37,0.269776043574028,3
655,785,37,0.268403072951845,1
655,786,37,0.303553297244618,1
655,787,37,0.266939184922144,1
655,788,37,0.262222078910845,2
655,789,37,0.317544073037675,2
655,790,37,0.359690344731487,2
655,791,37,0.287842463026999,2
655,792,37,0.223278337566253,1
656,785,37,0.211948097183454,1
656,786,37,0.236707239070102,1
656,787,37,0.227284356392846,1
656,788,37,0.225374454884191,1
656,789,37,0.258004712442372,2
656,790,37,0.287720407585093,2
656,791,37,0.239076037949397,1
657,790,37,0.187566745389522,1
643,785,38,0.241621560483771,4
643,786,38,0.248401313959101,4
643,787,38,0.222198846451239,1
643,788,38,0.213613699378436,1
644,785,38,0.22696527397843,4
644,786,38,0.246240659414064,4
644,787,38,0.224771243794416,4
644,788,38,0.222066050507305,1
644,789,38,0.217798632357232,1
645,788,38,0.20248220539062,1
645,789,38,0.213895402019346,1
652,788,38,0.218594489425269,2
652,789,38,0.219740708264505,2
653,783,38,0.180229651718494,3
653,784,38,0.163189645044309,3
653,788,38,0.240593887580296,2
653,789,38,0.25284477270601,2
653,790,38,0.254096818465448,2
653,791,38,0.268629118122817,2
653,792,38,0.272410245911331,1
653,793,38,0.222677104990009,1
654,782,38,0.224144808724378,3
654,783,38,0.366257761308171,3
654,784,38,0.31288201209927,3
654,785,38,0.221492046045851,3
654,786,38,0.215838208092328,1
654,787,38,0.231128372647182,1
654,788,38,0.278743703262917,2
654,789,38,0.312955311314864,2
654,790,38,0.340247445150188,2
654,791,38,0.310736832356497,2
654,792,38,0.282164859357366,2
654,793,38,0.252199400435028,1
654,794,38,0.227143905485843,1
655,782,38,0.214368502290695,3
655,783,38,0.35690341999254,3
655,784,38,0.343078438922675,3
655,785,38,0.288158601224851,3
655,786,38,0.2726094162735,1
655,787,38,0.257865203684671,2
655,788,38,0.299353855166591,2
655,789,38,0.353164029418047,2
655,790,38,0.399431968765113,2
655,791,38,0.329827061900811,2
655,792,38,0.265549396934943,2
655,793,38,0.237105626901905,1
656,783,38,0.182570033019507,3
656,784,38,0.222732338492763,3
656,785,38,0.240194180739472,1
656,786,38,0.236337586791971,1
656,787,38,0.235909474149731,1
656,788,38,0.280605672925898,2
656,789,38,0.332711616861043,2
656,790,38,0.34918669903766,2
656,791,38,0.263576206547014,2
656,792,38,0.212475724345581,1
657,788,38,0.2156802096546,1
657,789,38,0.260247192654175,2
657,790,38,0.255269511700034,2
657,791,38,0.183628490651382,1
641,785,39,0.213676823381583,1
642,784,39,0.214762721111842,1
642,785,39,0.239764113137433,4
642,786,39,0.227270883657846,4
642,787,39,0.221066948281374,1
642,788,39,0.224686662340945,1
643,784,39,0.280192775994865,4
643,785,39,0.329788174688424,4
643,786,39,0.329017025485798,4
643,787,39,0.284106746834779,4
643,788,39,0.267326997128046,1
643,789,39,0.207968788289536,1
644,782,39,0.212267674226253,4
644,784,39,0.26751227078803,4
644,785,39,0.329806640814718,4
644,786,39,0.358135586401733,4
644,787,39,0.310680562489513,4
644,788,39,0.28973764345283,4
644,789,39,0.282564095123539,1
644,790,39,0.214769104173354,1
645,785,39,0.226946949174531,4
645,786,39,0.243650714540162,4
645,787,39,0.243870659294411,4
645,788,39,0.275774590402947,4
645,789,39,0.304739015693287,4
645,790,39,0.233510220294292,1
646,788,39,0.214834112475103,1
646,789,39,0.217602806625081,1
651,788,39,0.249678515104867,2
651,789,39,0.216981082301546,2
652,787,39,0.235580734704983,2
652,788,39,0.318452328517286,2
652,789,39,0.299555475116942,2
652,790,39,0.261602474423237,2
652,791,39,0.287321760662233,2
652,792,39,0.252867808256412,1
653,783,39,0.185072546438303,3
653,784,39,0.181402804250865,3
653,785,39,0.139080338860955,1
653,787,39,0.218121554030048,2
653,788,39,0.30951912793907,2
653,789,39,0.317331359279309,2
653,790,39,0.280030231686761,2
653,791,39,0.290908381727617,2
653,792,39,0.294293689041174,2
653,793,39,0.243483812791542,1
654,782,39,0.217566651645666,3
654,783,39,0.409295612438971,3
654,784,39,0.398959433783345,3
654,785,39,0.253136344360845,3
654,786,39,0.198854977690376,1
654,787,39,0.244760919722379,2
654,788,39,0.324782653222447,2
654,789,39,0.343853474491166,2
654,790,39,0.349583720752977,2
654,791,39,0.351917448124553,2
654,792,39,0.334875215622644,2
654,793,39,0.287539868225346,2
654,794,39,0.246695246451654,1
655,782,39,0.217416025526216,3
655,783,39,0.400092415424906,3
655,784,39,0.428334000218013,3
655,785,39,0.318751720011317,3
655,786,39,0.241474326101804,3
655,787,39,0.260573623833136,2
655,788,39,0.343799913303421,2
655,789,39,0.387494678034138,2
655,790,39,0.415377657249665,2
655,791,39,0.382292953976289,2
655,792,39,0.332570812648053,2
655,793,39,0.272559011285912,2
655,794,39,0.208246745886977,1
656,783,39,0.198281679840897,3
656,784,39,0.256902397760549,3
656,785,39,0.261834690672128,3
656,786,39,0.225697941846588,1
656,787,39,0.248806767910659,2
656,788,39,0.353129664522303,2
656,789,39,0.426838856385261,2
656,790,39,0.400190163414854,2
656,791,39,0.289909161733023,2
656,792,39,0.244840342908428,2
656,793,39,0.216077702444567,1
657,787,39,0.196212790637749,1
657,788,39,0.290626325780719,2
657,789,39,0.372904200657451,2
657,790,39,0.33424666071668,2
657,791,39,0.210564291844313,2
658,788,39,0.172085253865427,1
658,789,39,0.212345613527154,2
658,790,39,0.210799923384419,2
640,785,40,0.211697603238129,1
641,784,40,0.236658058876606,1
641,785,40,0.252580782471953,1
641,786,40,0.204112100127105,1
641,787,40,0.188333631366562,1
642,783,40,0.200168993320067,1
642,784,40,0.245133327787214,4
642,785,40,0.264137845298896,4
642,786,40,0.24738659560851,4
642,787,40,0.243569736807766,4
642,788,40,0.256808606797664,1
643,781,40,0.294177121618944,4
643,782,40,0.289686084332349,4
643,783,40,0.29527609167075,4
643,784,40,0.334097424267448,4
643,785,40,0.360806509008031,4
643,786,40,0.370428656262386,4
643,787,40,0.312771662862425,4
643,788,40,0.276818703811719,4
643,789,40,0.215396151640437,1
644,781,40,0.315223182450321,4
644,782,40,0.312649136345868,4
644,783,40,0.290697175408132,4
644,784,40,0.320040627362145,4
644,785,40,0.384560401144561,4
644,786,40,0.431796446005565,4
644,787,40,0.35374130784832,4
644,788,40,0.307238066713404,4
644,789,40,0.29964396649001,4
644,790,40,0.210081346112772,1
645,782,40,0.215488458718174,4
645,784,40,0.227794483131712,4
645,785,40,0.277233697024947,4
645,786,40,0.296868583079997,4
645,787,40,0.269982185841022,4
645,788,40,0.309422274990958,4
645,789,40,0.361203766260673,4
645,790,40,0.255866999232808,4
646,786,40,0.170491066587438,1
646,788,40,0.223870666831606,4
646,789,40,0.237898681075772,4
651,788,40,0.308850437472896,2
651,789,40,0.247035644993998,2
651,790,40,0.223162076342546,1
652,787,40,0.267243993774654,2
652,788,40,0.399947136002738,2
652,789,40,0.374576751203525,2
652,790,40,0.282169664318799,2
652,791,40,0.270928551259847,2
652,792,40,0.237470780417125,2
653,783,40,0.162739439000967,3
653,784,40,0.181860041083362,3
653,785,40,0.146865565846862,1
653,787,40,0.232904371186474,2
653,788,40,0.372926694472005,2
653,789,40,0.390876617163944,2
653,790,40,0.304752417767089,2
653,791,40,0.295447256644955,2
653,792,40,0.294864961269655,2
653,793,40,0.244691742409975,2
654,782,40,0.176532928730457,3
654,783,40,0.358385891917197,3
654,784,40,0.417692565188959,3
654,785,40,0.285953100373101,3
654,786,40,0.199776281937801,1
654,787,40,0.258468085022191,2
654,788,40,0.370027583305077,2
654,789,40,0.38429141751921,2
654,790,40,0.350466114234284,2
654,791,40,0.391553763420092,2
654,792,40,0.39751478915311,2
654,793,40,0.310793267099609,2
654,794,40,0.240820922008033,2
655,782,40,0.188698042939208,3
655,783,40,0.364542978919692,3
655,784,40,0.452750458850263,3
655,785,40,0.340837112843766,3
655,786,40,0.229088430981298,3
655,787,40,0.267301370667067,2
655,788,40,0.378393586450536,2
655,789,40,0.415470882922969,2
655,790,40,0.398697139418029,2
655,791,40,0.419772030018007,2
655,792,40,0.40786147277344,2
655,793,40,0.305622704629882,2
655,794,40,0.21267574264212,2
656,783,40,0.187018202512919,3
656,784,40,0.255317631975567,3
656,785,40,0.250527250302406,3
656,787,40,0.261353252379469,2
656,788,40,0.423466809823112,2
656,789,40,0.509250775553751,2
656,790,40,0.408920354372501,2
656,791,40,0.299489477558428,2
656,792,40,0.271437830064342,2
656,793,40,0.239284488482178,2
657,787,40,0.234145134708036,2
657,788,40,0.385738441076428,2
657,789,40,0.477415739112829,2
657,790,40,0.369677598393598,2
657,791,40,0.227207453456176,2
657,792,40,0.185371761279341,1
658,788,40,0.213132096209649,2
658,789,40,0.258934448926039,2
658,790,40,0.244487507995314,2
640,785,41,0.228259386704144,1
641,784,41,0.233700981973952,1
641,785,41,0.25684768243991,1
641,786,41,0.211093355784123,1
641,787,41,0.18945680287853,1
642,781,41,0.21728984818112,4
642,782,41,0.200533934851695,4
642,783,41,0.206888920314802,4
642,784,41,0.248169144817675,4
642,785,41,0.260835164479012,4
642,786,41,0.246570882743961,4
642,787,41,0.240317248991877,4
642,788,41,0.249752615147368,1
643,780,41,0.302851937751442,4
643,781,41,0.377264514728573,4
643,782,41,0.348132693061231,4
643,783,41,0.316950895837952,4
643,784,41,0.327926393455303,4
643,785,41,0.333963356421958,4
643,786,41,0.351473130514341,4
643,787,41,0.301264887254406,4
643,788,41,0.253309676278442,4
643,789,41,0.195503411098651,1
644,780,41,0.302001365362767,4
644,781,41,0.383562665035115,4
644,782,41,0.377607292197901,4
644,783,41,0.321923253648544,4
644,784,41,0.316446186457565,4
644,785,41,0.368813977237108,4
644,786,41,0.415674905354037,4
644,787,41,0.333526293361362,4
644,788,41,0.278200601298527,4
644,789,41,0.266282695289414,1
644,790,41,0.179972633389262,1
645,777,41,0.254877200731221,4
645,781,41,0.21898771898965,4
645,782,41,0.250937909628851,4
645,783,41,0.242577983346381,4
645,784,41,0.241919420985189,4
645,785,41,0.287201660180126,4
645,786,41,0.301988010396429,4
645,787,41,0.25393929110237,4
645,788,41,0.285442219914794,4
645,789,41,0.341099689853872,4
645,790,41,0.236266595842163,1
646,783,41,0.274041035689652,4
646,786,41,0.171863872333494,1
646,788,41,0.20520638298614,1
646,789,41,0.227540197035452,1
647,783,41,0.319915863240999,4
651,788,41,0.302950463014563,2
651,789,41,0.251865149416871,2
651,790,41,0.209159688559359,1
651,793,41,0.188231785027156,1
652,787,41,0.25819217659948,2
652,788,41,0.389544064746761,2
652,789,41,0.382881820842962,2
652,790,41,0.273138056246125,2
652,791,41,0.233710850987877,2
652,792,41,0.217044064982298,2
653,784,41,0.168584674584929,3
653,785,41,0.153748555331816,1
653,787,41,0.229376658006116,2
653,788,41,0.375517016205627,2
653,789,41,0.411172138308648,2
653,790,41,0.306440113363172,2
653,791,41,0.285415651304514,2
653,792,41,0.283216957481462,2
653,793,41,0.234626737876823,2
654,783,41,0.264723932825132,3
654,784,41,0.37552994720478,3
654,785,41,0.306319730236275,3
654,786,41,0.206777487606261,1
654,787,41,0.25673401212678,2
654,788,41,0.373575788232725,2
654,789,41,0.394091018594353,2
654,790,41,0.338264197318474,2
654,791,41,0.401795585823253,2
654,792,41,0.427847709856455,2
654,793,41,0.314229097169416,2
654,794,41,0.216755790850016,2
655,782,41,0.154136108446661,1
655,783,41,0.290177674283724,3
655,784,41,0.418172590257667,3
655,785,41,0.347782661042287,3
655,786,41,0.225077159672354,3
655,787,41,0.260272041841981,2
655,788,41,0.373585727907847,2
655,789,41,0.411082822554941,2
655,790,41,0.359593750874432,2
655,791,41,0.410913141465884,2
655,792,41,0.43968817119305,2
655,793,41,0.330673653708691,2
655,794,41,0.226899959478159,2
656,783,41,0.166622472013219,1
656,784,41,0.230176048134031,3
656,785,41,0.220329951990898,3
656,787,41,0.250609170184103,2
656,788,41,0.431757864991701,2
656,789,41,0.512811770158156,2
656,790,41,0.37604226444077,2
656,791,41,0.296286711671883,2
656,792,41,0.287423183034454,2
656,793,41,0.260943982723243,2
656,794,41,0.221710200716429,1
657,787,41,0.254552724512059,2
657,788,41,0.437950423915367,2
657,789,41,0.50892172991048,2
657,790,41,0.359213028342018,2
657,791,41,0.245282493575248,2
657,792,41,0.207518111171545,2
657,793,41,0.214388734946927,1
658,788,41,0.257823466470649,2
658,789,41,0.295559348858007,2
658,790,41,0.266500755745062,2
658,791,41,0.249049983752635,1
658,799,41,0.192659297897151,1
659,789,41,0.13931118899336,2
659,799,41,0.218726672972158,1
641,785,42,0.238626891824019,1
641,786,42,0.22112950699494,1
641,787,42,0.194340845969047,1
642,780,42,0.19574173954113,4
642,781,42,0.230848012569025,4
642,782,42,0.209166472034324,4
642,783,42,0.205099708131568,4
642,784,42,0.233712523302885,1
642,785,42,0.244926078494792,4
642,786,42,0.243088486944967,4
642,787,42,0.234223050455204,1
642,788,42,0.231029870937794,1
643,779,42,0.247828769829063,4
643,780,42,0.326047488658642,4
643,781,42,0.409606568815668,4
643,782,42,0.367617047211761,4
643,783,42,0.300829755599876,4
643,784,42,0.284296001075558,4
643,785,42,0.28775995430199,4
643,786,42,0.306344791407674,4
643,787,42,0.277702392748315,4
643,788,42,0.233140308925103,1
644,777,42,0.298198379710476,4
644,778,42,0.28291045276021,4
644,779,42,0.290661679933228,4
644,780,42,0.331943411874982,4
644,781,42,0.405761657519496,4
644,782,42,0.391667763485478,4
644,783,42,0.317781259124127,4
644,784,42,0.285062510192878,4
644,785,42,0.322835442601485,4
644,786,42,0.354496299190439,4
644,787,42,0.295629656749572,4
644,788,42,0.250567998259662,1
644,789,42,0.222939493570255,1
645,776,42,0.308429108305621,4
645,777,42,0.314509504355038,4
645,778,42,0.233472275231206,4
645,780,42,0.179415446292826,4
645,781,42,0.217934890699846,4
645,782,42,0.267362845908938,4
645,783,42,0.2822244974081,4
645,784,42,0.243713438129856,4
645,785,42,0.263178124913734,4
645,786,42,0.269926387048688,4
645,787,42,0.224772138836252,1
645,788,42,0.241010223356277,1
645,789,42,0.274093489851969,1
646,777,42,0.29034323346959,4
646,782,42,0.268267285683881,4
646,783,42,0.365733337453666,4
646,784,42,0.250326784484949,4
647,782,42,0.282136853969402,4
647,783,42,0.401866765202922,4
647,784,42,0.267371019054122,4
648,783,42,0.23510075674374,4
650,793,42,0.1945433727381,1
651,788,42,0.26222539998713,2
651,789,42,0.238521323994875,2
651,792,42,0.194812615454508,1
651,793,42,0.213704828769546,1
651,794,42,0.16994018011445,1
652,787,42,0.242576075494047,2
652,788,42,0.344831048605577,2
652,789,42,0.343535310672319,2
652,790,42,0.239402657558218,2
652,791,42,0.194420622461084,1
652,792,42,0.201990803869106,1
652,793,42,0.211704316051897,1
653,787,42,0.240357031246099,2
653,788,42,0.359164978727682,2
653,789,42,0.38089157755269,2
653,790,42,0.28575531968115,2
653,791,42,0.261033274923217,2
653,792,42,0.257549018379354,2
653,793,42,0.217587685128805,1
654,784,42,0.306867448732239,3
654,785,42,0.290308868573847,1
654,787,42,0.248573656619932,2
654,788,42,0.349753755148022,2
654,789,42,0.371972485660252,2
654,790,42,0.328557821916635,2
654,791,42,0.384114152128282,2
654,792,42,0.40292842614242,2
654,793,42,0.294197589812502,2
654,794,42,0.186014825284536,1
655,783,42,0.21317430449832,3
655,784,42,0.339788006043699,3
655,785,42,0.315405017265357,3
655,787,42,0.238099217554427,2
655,788,42,0.335504500694317,2
655,789,42,0.370983511539303,2
655,790,42,0.320023621567267,2
655,791,42,0.371348311748536,2
655,792,42,0.412793907007414,2
655,793,42,0.33513011411595,2
655,794,42,0.239811550354724,2
656,784,42,0.191783252146758,3
656,787,42,0.224998631528141,2
656,788,42,0.381192123179614,2
656,789,42,0.445239833054912,2
656,790,42,0.32526112374481,2
656,791,42,0.281507592451462,2
656,792,42,0.278987036873557,2
656,793,42,0.271489789598276,2
656,794,42,0.271087892260328,1
656,795,42,0.23891224529347,1
657,787,42,0.244187692534098,2
657,788,42,0.417780232181389,2
657,789,42,0.46747846647112,2
657,790,42,0.325664104554453,2
657,791,42,0.253196783238486,2
657,792,42,0.217392212702641,1
657,793,42,0.213071539563346,1
657,794,42,0.237482981250569,1
657,799,42,0.199792651781901,1
658,788,42,0.282187282510722,2
658,789,42,0.317859645945946,2
658,790,42,0.282239194937191,2
658,791,42,0.28248832276603,1
658,798,42,0.225675871999219,1
658,799,42,0.282136524217147,5
658,800,42,0.210770575433702,1
659,789,42,0.164708754799897,2
659,790,42,0.221138881380482,1
659,798,42,0.277961813558263,1
659,799,42,0.296671179247767,1
659,800,42,0.191374100259195,1
660,799,42,0.21189912897355,1
642,778,43,0.24237271256749,1
642,780,43,0.201693249566211,4
642,781,43,0.224532691591478,4
642,782,43,0.212620885999087,4
642,785,43,0.214315906805983,1
642,786,43,0.229667169742988,1
642,787,43,0.215020234069457,1
643,777,43,0.236290173128413,4
643,778,43,0.263315584496707,4
643,779,43,0.279997821750817,4
643,780,43,0.314697109834541,4
643,781,43,0.362316421031071,4
643,782,43,0.333477042506667,4
643,783,43,0.259505038096278,4
643,784,43,0.226270391761696,1
643,785,43,0.23411738841113,4
643,786,43,0.248455252006566,4
643,787,43,0.239953037625957,1
644,776,43,0.269918590763225,4
644,777,43,0.333131344374507,4
644,778,43,0.324887349563488,4
644,779,43,0.312326991946225,4
644,780,43,0.316712296527549,4
644,781,43,0.350349311274729,4
644,782,43,0.339511579438873,4
644,783,43,0.280864245801477,4
644,784,43,0.243259416381847,4
644,785,43,0.258062466194505,4
644,786,43,0.267988244614745,4
644,787,43,0.249510765421877,1
644,788,43,0.224338938587788,1
645,776,43,0.303795005647714,4
645,777,43,0.3536042486788,4
645,778,43,0.27312107400498,4
645,779,43,0.198409576608468,4
645,780,43,0.169940863172693,4
645,781,43,0.192693038618982,4
645,782,43,0.245651509902602,4
645,783,43,0.281551001980492,4
645,784,43,0.23149715343721,1
645,786,43,0.213205701623766,1
646,777,43,0.242404839858644,4
646,782,43,0.261195725016391,4
646,783,43,0.365235976837825,4
646,784,43,0.235888228683001,4
647,782,43,0.275289642604142,4
647,783,43,0.378542799346035,4
647,784,43,0.235003197183652,4
647,785,43,0.164407467230399,1
648,782,43,0.172913461985077,1
648,783,43,0.223051373799714,4
649,793,43,0.134853221147219,1
650,792,43,0.180179906235417,1
650,793,43,0.216448579516789,1
650,794,43,0.162995939148084,1
651,791,43,0.153075001019877,1
651,792,43,0.202090059297935,1
651,793,43,0.231674277505743,1
651,794,43,0.160474476751477,1
652,787,43,0.230076651382807,1
652,788,43,0.287621693892112,2
652,789,43,0.264194915992787,2
652,791,43,0.165071623603063,1
652,792,43,0.19650305506043,1
652,793,43,0.210628829071411,1
653,786,43,0.164592057832139,1
653,787,43,0.26313850753564,2
653,788,43,0.324685988704195,2
653,789,43,0.299679933039565,2
653,790,43,0.241507960831839,2
653,791,43,0.221670489123405,2
653,792,43,0.219570155687346,2
653,793,43,0.191812823857934,1
654,785,43,0.240271601858258,1
654,786,43,0.190624090531503,1
654,787,43,0.236731946935513,2
654,788,43,0.299944441455738,2
654,789,43,0.312005177298837,2
654,790,43,0.303074779614791,2
654,791,43,0.324537529528137,2
654,792,43,0.319243380623889,2
654,793,43,0.241971027213135,2
655,784,43,0.245446592429698,3
655,785,43,0.248569110749556,1
655,786,43,0.190807362124223,1
655,787,43,0.212651081884174,1
655,788,43,0.281190535658043,2
655,789,43,0.310220463878514,2
655,790,43,0.283187114902362,2
655,791,43,0.307765623214333,2
655,792,43,0.332421317107764,2
655,793,43,0.295545169511031,2
655,794,43,0.229891519045218,1
656,786,43,0.161999368948398,1
656,787,43,0.208999570285704,2
656,788,43,0.309445758062278,2
656,789,43,0.347230396675947,2
656,790,43,0.273559715165655,2
656,791,43,0.25046563373814,2
656,792,43,0.243369129667914,2
656,793,43,0.25926340035438,1
656,794,43,0.300890641998434,1
656,795,43,0.258651191738783,1
657,787,43,0.224109831431589,2
657,788,43,0.344680257609999,2
657,789,43,0.379555209430839,2
657,790,43,0.293242886372366,2
657,791,43,0.249239497084472,2
657,792,43,0.20879736149204,1
657,793,43,0.203632970100232,1
657,794,43,0.257478050983279,1
657,795,43,0.25022434930223,1
657,798,43,0.172107830118045,1
657,799,43,0.253744336858322,5
657,800,43,0.220655323251896,1
658,788,43,0.275954870671637,2
658,789,43,0.312473896575937,2
658,790,43,0.291927834378444,2
658,791,43,0.291253043495547,1
658,794,43,0.21934884481661,1
658,795,43,0.189103920857951,1
658,798,43,0.262220759901824,5
658,799,43,0.36269278612297,5
658,800,43,0.262059393280346,5
658,801,43,0.164103400320463,1
659,789,43,0.192804718641715,2
659,797,43,0.167852330156626,1
659,798,43,0.291014302862749,1
659,799,43,0.326358185944282,5
659,800,43,0.211553642824982,1
660,798,43,0.219380571694311,1
660,799,43,0.208333847589827,1
641,778,44,0.265142152899714,1
641,782,44,0.202695036917649,1
642,777,44,0.239328086441068,1
642,778,44,0.286982634021445,4
642,779,44,0.254832684176763,4
643,777,44,0.230395828012153,4
643,778,44,0.312955193546202,4
643,779,44,0.334491996394583,4
643,780,44,0.292291504008516,4
643,781,44,0.284024402985897,4
643,782,44,0.283481936972285,4
643,786,44,0.202105981621117,1
644,776,44,0.229662458996485,4
644,777,44,0.318329613570869,4
644,778,44,0.329316275657434,4
644,779,44,0.304829485579887,4
644,780,44,0.267282386358658,4
644,781,44,0.262724903992631,4
644,782,44,0.269433666518153,4
644,783,44,0.24672683200696,1
644,786,44,0.194843859480693,1
645,776,44,0.265976190568162,4
645,777,44,0.342306959967794,4
645,778,44,0.269669651364246,4
645,783,44,0.25962153485731,1
646,777,44,0.201801502520862,4
646,782,44,0.228457991776732,1
646,783,44,0.301771551594592,4
646,784,44,0.214215685674121,1
646,785,44,0.149680731511097,1
646,786,44,0.129986242735911,1
646,787,44,0.125677476008404,1
646,788,44,0.133470251965583,1
647,782,44,0.243423774327355,1
647,783,44,0.295462849215882,4
647,784,44,0.195012504205519,1
647,785,44,0.142802853186099,1
647,786,44,0.125936849710887,1
647,788,44,0.114488852442367,1
647,795,44,0.139833080821618,1
647,796,44,0.179147369486177,1
648,780,44,0.119629584109861,1
648,781,44,0.152349322297876,1
648,782,44,0.183594655714621,1
648,783,44,0.194224090116957,1
648,784,44,0.151557716678558,1
648,785,44,0.145720006512136,1
648,786,44,0.134364481197479,1
648,796,44,0.144917318861669,1
649,793,44,0.116325690272751,1
650,791,44,0.115019341382994,1
650,792,44,0.168844743122522,1
650,793,44,0.190503919388198,1
650,794,44,0.131827355568748,1
651,787,44,0.126391377864146,1
651,788,44,0.147001871296941,1
651,789,44,0.146105251361194,1
651,790,44,0.122443524980005,1
651,791,44,0.128209408039115,1
651,792,44,0.184395388405289,1
651,793,44,0.200030214728074,1
651,794,44,0.131303143697836,1
652,779,44,0.120642594814844,1
652,786,44,0.119036642447463,1
652,787,44,0.190890153494022,1
652,788,44,0.211314996407114,1
652,789,44,0.176535590302231,1
652,790,44,0.138545940000729,1
652,791,44,0.135186388693681,1
652,792,44,0.170924702579953,1
652,793,44,0.17600567842805,1
652,794,44,0.119922674980443,1
653,785,44,0.120481404846359,1
653,786,44,0.150871266698065,1
653,787,44,0.237208603820472,1
653,788,44,0.24901298083885,2
653,789,44,0.203095780122704,2
653,790,44,0.180149380598075,1
653,791,44,0.169708670477535,1
653,792,44,0.168231580580758,1
653,793,44,0.151002190120264,1
654,784,44,0.164739127337979,1
654,785,44,0.169577275980686,1
654,786,44,0.155164782383768,1
654,787,44,0.193882337234993,1
654,788,44,0.220939569695918,2
654,789,44,0.227676102072078,2
654,790,44,0.241926039584026,2
654,791,44,0.238092245649602,2
654,792,44,0.219919716631639,2
654,793,44,0.17568365179707,1
654,794,44,0.119971607859749,1
655,784,44,0.15448039335487,1
655,785,44,0.165669617541086,1
655,786,44,0.153640337707764,1
655,787,44,0.169389705831782,1
655,788,44,0.207704868716677,1
655,789,44,0.231455604653049,2
655,790,44,0.227552586298756,2
655,791,44,0.230647476090371,2
655,792,44,0.237331742734074,2
655,793,44,0.223924581325338,1
655,794,44,0.192288703469719,1
655,795,44,0.140060715869535,1
656,785,44,0.123560654959582,1
656,786,44,0.148402976852616,1
656,787,44,0.177683952531126,1
656,788,44,0.223230287951917,2
656,789,44,0.241446273606375,2
656,790,44,0.212036729878918,1
656,791,44,0.19986206463163,1
656,792,44,0.192037385143756,1
656,793,44,0.219575243293569,1
656,794,44,0.277051791548714,1
656,795,44,0.233781771276487,1
656,796,44,0.131603748209092,1
656,799,44,0.137484043523906,1
656,800,44,0.134089880006923,1
657,786,44,0.139736380972767,1
657,787,44,0.185275567835739,1
657,788,44,0.244881538386601,2
657,789,44,0.267022023399408,2
657,790,44,0.241420812021524,2
657,791,44,0.219116110385604,1
657,792,44,0.18048511550138,1
657,793,44,0.182257157013609,1
657,794,44,0.244388346781415,1
657,795,44,0.233964995761741,1
657,796,44,0.136428353455601,1
657,798,44,0.170296171227721,1
657,799,44,0.263491648647276,5
657,800,44,0.217170595633383,1
658,787,44,0.175458407453004,1
658,788,44,0.238637208358862,1
658,789,44,0.26462839888604,2
658,790,44,0.267899305720759,1
658,791,44,0.268103869887674,1
658,792,44,0.241842400279856,1
658,793,44,0.205412713682994,1
658,794,44,0.190803664188217,1
658,795,44,0.166900311841997,1
658,796,44,0.114561680583311,1
658,797,44,0.12665651045423,1
658,798,44,0.253994453943927,5
658,799,44,0.373001147820493,5
658,800,44,0.26626451180791,5
658,801,44,0.159471276176087,1
659,788,44,0.184132469866061,1
659,789,44,0.20739419498477,1
659,790,44,0.238401176405303,1
659,791,44,0.283664761044086,1
659,794,44,0.230404283802126,1
659,795,44,0.183412691354056,1
659,796,44,0.13940212995461,1
659,797,44,0.150459335470065,1
659,798,44,0.242092988440111,1
659,799,44,0.289266168389026,5
659,800,44,0.201966779061938,1
660,794,44,0.214486906904061,1
660,795,44,0.212843727862436,1
660,799,44,0.181129251201405,1
640,782,45,0.242290368718608,1
640,783,45,0.20742198838914,1
641,778,45,0.240512485880715,4
641,779,45,0.194594837643651,1
641,781,45,0.230618481445641,1
641,782,45,0.267914544985698,1
641,783,45,0.234829771051125,1
641,784,45,0.204085979037743,1
642,777,45,0.20948275155457,4
642,778,45,0.316336897138683,4
642,779,45,0.313430295884814,4
642,780,45,0.221057573895832,1
642,782,45,0.257830697466532,1
642,783,45,0.228662838588438,1
643,777,45,0.215443023568147,4
643,778,45,0.342487617096204,4
643,779,45,0.363432396877755,4
643,780,45,0.252208185977257,4
644,777,45,0.265378891465249,4
644,778,45,0.295914939557825,4
644,779,45,0.261536665294583,4
645,777,45,0.275264887631266,4
645,778,45,0.22750387717991,1
645,782,45,0.189662827376861,1
645,783,45,0.228241179668908,1
645,784,45,0.210606335256857,1
645,785,45,0.160437838920546,1
645,786,45,0.128944602469053,1
645,787,45,0.130863360181134,1
645,788,45,0.131032158005221,1
646,781,45,0.129705411583104,1
646,782,45,0.193609879434096,1
646,783,45,0.226976179356586,1
646,784,45,0.194226763465598,1
646,785,45,0.149168944234089,1
646,786,45,0.119534003063304,1
646,787,45,0.115420261241042,1
646,788,45,0.117945927978904,1
646,795,45,0.132971431018325,1
646,796,45,0.150351683135593,1
647,781,45,0.156265059667728,1
647,782,45,0.197464377099403,1
647,783,45,0.203745368511806,1
647,784,45,0.160193009647891,1
647,785,45,0.126645510861144,1
647,795,45,0.131803472083975,1
647,796,45,0.16317333408454,1
647,797,45,0.136960856240359,1
648,779,45,0.143254837536246,1
648,780,45,0.150766958993611,1
648,781,45,0.178569360890195,1
648,782,45,0.179924937080914,1
648,783,45,0.158091957822991,1
648,784,45,0.123746270148687,1
648,796,45,0.118139669205728,1
649,778,45,0.118694135846058,1
649,779,45,0.142502389997239,1
649,780,45,0.130592138951194,1
649,781,45,0.130192585209632,1
649,782,45,0.117807797114555,1
650,792,45,0.153774452660719,1
650,793,45,0.153578344283778,1
651,791,45,0.114289022575687,1
651,792,45,0.163203023564379,1
651,793,45,0.160199486924334,1
652,778,45,0.11823179963047,1
652,779,45,0.121475490127265,1
652,787,45,0.153562292415067,1
652,788,45,0.150476753455262,1
652,789,45,0.119179001206799,1
652,791,45,0.114839979709873,1
652,792,45,0.142056294080222,1
652,793,45,0.136778691673068,1
653,786,45,0.136162490699809,1
653,787,45,0.19157076214885,1
653,788,45,0.178294335732454,1
653,789,45,0.139969810238883,1
653,790,45,0.131190179996682,1
653,791,45,0.129508372833728,1
653,792,45,0.128692259555726,1
653,793,45,0.116912590402758,1
654,785,45,0.119846042911697,1
654,786,45,0.128900062360862,1
654,787,45,0.155008526922246,1
654,788,45,0.159645997763903,1
654,789,45,0.162646331096325,1
654,790,45,0.172175688421428,1
654,791,45,0.161955535452183,1
654,792,45,0.147429300880938,1
654,793,45,0.125785917392915,1
655,786,45,0.125267016888686,1
655,787,45,0.136467217114255,1
655,788,45,0.152578606107068,1
655,789,45,0.171094548545138,1
655,790,45,0.171634447201906,1
655,791,45,0.164252577885363,1
655,792,45,0.161758390711011,1
655,793,45,0.158060136730359,1
655,794,45,0.150474186098417,1
655,795,45,0.117649610246967,1
656,786,45,0.130301179693404,1
656,787,45,0.143895522614457,1
656,788,45,0.153513748172348,1
656,789,45,0.163019598872398,1
656,790,45,0.159386624061419,1
656,791,45,0.154400652193432,1
656,792,45,0.148420865912464,1
656,793,45,0.172858534680845,1
656,794,45,0.219761812408841,1
656,795,45,0.185893476454605,1
656,799,45,0.125971367705892,1
656,800,45,0.119414903614829,1
656,803,45,0.155224090682247,1
657,786,45,0.119471491457203,1
657,787,45,0.14365702929585,1
657,788,45,0.160143794123796,1
657,789,45,0.173209720832683,1
657,790,45,0.186600712604045,1
657,791,45,0.183139880247171,1
657,792,45,0.153246377977675,1
657,793,45,0.159493722883177,1
657,794,45,0.208319432705526,1
657,795,45,0.192811031042029,1
657,796,45,0.120104686448473,1
657,798,45,0.162716014813979,1
657,799,45,0.233415981810489,1
657,800,45,0.188724799979348,1
657,801,45,0.127791046642138,1
657,802,45,0.131661808159748,1
657,803,45,0.218874637519833,1
658,787,45,0.149471880564864,1
658,788,45,0.189981591815888,1
658,789,45,0.20268980798903,1
658,790,45,0.221228927299897,1
658,791,45,0.225282030037792,1
658,792,45,0.193571957924743,1
658,793,45,0.166456076669849,1
658,794,45,0.160229282395969,1
658,795,45,0.140302648033089,1
658,797,45,0.114815931348972,1
658,798,45,0.213765479630779,1
658,799,45,0.309717733011658,5
658,800,45,0.232414359335178,1
658,801,45,0.149951128360399,1
658,809,45,0.20802439865201,1
659,787,45,0.137380854621746,1
659,788,45,0.199467021429845,1
659,789,45,0.206290631955123,1
659,790,45,0.210461691785466,1
659,791,45,0.22886634283739,1
659,792,45,0.229918299639091,1
659,793,45,0.203442019990712,1
659,794,45,0.168496913377569,1
659,795,45,0.13866565184625,1
659,796,45,0.118801764626797,1
659,797,45,0.125765460976223,1
659,798,45,0.175128184123107,1
659,799,45,0.218689952703163,1
659,800,45,0.179995551171002,1
660,788,45,0.118569748584633,1
660,789,45,0.128719911637701,1
660,790,45,0.131715875752742,1
660,791,45,0.148739453698497,1
660,792,45,0.169899538148991,1
660,793,45,0.180760835494231,1
660,794,45,0.181193541114312,1
660,795,45,0.181788885257427,1
660,796,45,0.188112591363751,1
660,797,45,0.176386718935854,1
660,798,45,0.155244770859398,1
660,799,45,0.147370275227249,1
661,794,45,0.141805941457292,1
661,795,45,0.175832052088797,1
639,782,46,0.19747908640536,1
639,783,46,0.168604141744855,1
640,781,46,0.233329421843487,1
640,782,46,0.271415218481125,1
640,783,46,0.238843232857193,1
640,784,46,0.23252112840468,1
641,778,46,0.210515865370257,1
641,779,46,0.213891327223621,4
641,781,46,0.234189297956506,1
641,782,46,0.324797421412736,6
641,783,46,0.298607107630853,6
641,784,46,0.247747415236947,1
641,785,46,0.20506595563287,1
642,777,46,0.171299254034448,1
642,778,46,0.30481379879403,4
642,779,46,0.33427351197175,4
642,780,46,0.221759616447251,4
642,781,46,0.202165737440514,1
642,782,46,0.280252720244122,1
642,783,46,0.287867618413328,6
642,784,46,0.240707981860611,1
643,777,46,0.184503594252475,1
643,778,46,0.315927250622737,4
643,779,46,0.333651622772088,4
643,780,46,0.209641385943076,4
643,782,46,0.209489629244465,1
643,783,46,0.248818874529173,1
644,778,46,0.236244596655992,1
644,779,46,0.206319603046119,4
644,782,46,0.167446699552074,1
644,783,46,0.206262014170114,1
644,784,46,0.199354740786934,1
644,785,46,0.15328923399399,1
644,786,46,0.128822876779402,1
645,781,46,0.129939523907462,1
645,782,46,0.167531657865265,1
645,783,46,0.192601520591285,1
645,784,46,0.189049711942562,1
645,785,46,0.151547977210162,1
645,786,46,0.117348511107328,1
646,781,46,0.133353861196347,1
646,782,46,0.166017270633046,1
646,783,46,0.175199964122955,1
646,784,46,0.170271216048119,1
646,785,46,0.14197712998523,1
646,796,46,0.127767139603632,1
647,780,46,0.118426777428251,1
647,781,46,0.148545830240336,1
647,782,46,0.157126066359909,1
647,783,46,0.145049302201831,1
647,784,46,0.130013659280562,1
647,796,46,0.131558230621002,1
648,778,46,0.129341070671655,1
648,779,46,0.16124368277117,1
648,780,46,0.156984579088676,1
648,781,46,0.167295661242305,1
648,782,46,0.152528389549341,1
648,783,46,0.119944568174818,1
649,778,46,0.130755531193668,1
649,779,46,0.157576837692831,1
649,780,46,0.134256557995084,1
649,781,46,0.124687901267276,1
650,792,46,0.122559268021597,1
650,793,46,0.114085035475219,1
651,792,46,0.126998922840704,1
651,793,46,0.118783263169905,1
652,778,46,0.114445702004394,1
653,787,46,0.127388419138482,1
653,788,46,0.114321797594486,1
655,789,46,0.117779980156451,1
655,790,46,0.116435909964067,1
656,793,46,0.121328043761704,1
656,794,46,0.14621392828303,1
656,795,46,0.128423994319217,1
656,803,46,0.139403178095707,1
656,804,46,0.144638642875387,1
656,805,46,0.142337407877819,1
657,790,46,0.128934026843153,1
657,791,46,0.134030607039042,1
657,792,46,0.118063943955684,1
657,793,46,0.123391480275775,1
657,794,46,0.148418793184002,1
657,795,46,0.135895968439506,1
657,798,46,0.130994542694391,1
657,799,46,0.170357587585261,1
657,800,46,0.147047459546229,1
657,801,46,0.118288328588512,1
657,802,46,0.13190601325849,1
657,803,46,0.197556766615203,1
657,804,46,0.222957041100981,1
657,805,46,0.231216228069473,1
657,809,46,0.173086087290698,1
658,787,46,0.117704902634052,1
658,788,46,0.142793855660278,1
658,789,46,0.145518127470728,1
658,790,46,0.157651809223434,1
658,791,46,0.160041194064949,1
658,792,46,0.137151971226007,1
658,793,46,0.122350263976102,1
658,794,46,0.120322487813063,1
658,798,46,0.153757811948695,1
658,799,46,0.208830124733972,1
658,800,46,0.178220671434005,1
658,801,46,0.141633398589734,1
658,802,46,0.155161025563431,1
658,804,46,0.224831329366068,1
658,805,46,0.234439108843588,1
658,808,46,0.214860775300312,1
658,809,46,0.266296921743854,1
658,810,46,0.214675666516457,1
659,787,46,0.122496638646832,1
659,788,46,0.1814855131826,1
659,789,46,0.179983526990552,1
659,790,46,0.16334080112274,1
659,791,46,0.159389733154111,1
659,792,46,0.150593839059607,1
659,793,46,0.133504345993402,1
659,794,46,0.11506037198504,1
659,798,46,0.122911655413792,1
659,799,46,0.152001245238731,1
659,800,46,0.149780540452641,1
659,801,46,0.159528865052093,1
659,809,46,0.245505782959515,1
660,788,46,0.118498875403487,1
660,789,46,0.125553230069373,1
660,790,46,0.115107503003808,1
660,791,46,0.115303352289691,1
660,792,46,0.124611104322402,1
660,793,46,0.1337565593612,1
660,794,46,0.140147605588792,1
660,795,46,0.140101357834994,1
660,796,46,0.15006092408453,1
660,797,46,0.143620344357454,1
660,798,46,0.120849019726628,1
660,799,46,0.115912145614074,1
660,800,46,0.127792754287745,1
660,801,46,0.171781493154013,1
661,794,46,0.140488687189379,1
661,795,46,0.164725972578368,1
661,796,46,0.200456490179177,1
661,797,46,0.201972243527882,1
661,798,46,0.161387407646992,1
661,799,46,0.142789839748883,1
639,782,47,0.206718579721235,1
639,783,47,0.176373116655325,1
639,784,47,0.176938217805887,1
640,781,47,0.205476968265302,1
640,782,47,0.278107516947617,6
640,783,47,0.254297119406778,6
640,784,47,0.230182313426881,1
640,785,47,0.207249151099926,1
641,781,47,0.208425895576505,6
641,782,47,0.320876054700812,6
641,783,47,0.321796558121332,6
641,784,47,0.262722807710437,6
641,785,47,0.187593514206528,1
642,778,47,0.256537880196107,1
642,779,47,0.301763731755397,4
642,781,47,0.175103429150231,1
642,782,47,0.261349318906138,6
642,783,47,0.322911709587377,6
642,784,47,0.284072947228616,6
642,785,47,0.176393302204092,1
643,778,47,0.251391978484325,1
643,779,47,0.264785879141653,4
643,782,47,0.18039543466482,1
643,783,47,0.255014730975391,6
643,784,47,0.244777784194861,1
643,785,47,0.159863810905359,1
643,786,47,0.127980524643375,1
643,788,47,0.1386786535066,1
643,789,47,0.153391410085652,1
643,790,47,0.16419230388385,1
643,791,47,0.149057334872554,1
644,781,47,0.120542420790446,1
644,782,47,0.1392031833529,1
644,783,47,0.175265219738895,1
644,784,47,0.178448224043857,1
644,785,47,0.142626588828804,1
644,786,47,0.118786984659642,1
645,781,47,0.133074502151822,1
645,782,47,0.147114458138375,1
645,783,47,0.158601566379741,1
645,784,47,0.163797802417913,1
645,785,47,0.143366705988838,1
646,781,47,0.133735737861655,1
646,782,47,0.143994083208177,1
646,783,47,0.145557450427166,1
646,784,47,0.14749354368638,1
646,785,47,0.127028247237689,1
647,777,47,0.1189730002622,1
647,780,47,0.116879450301106,1
647,781,47,0.127308065579998,1
647,782,47,0.122385888996535,1
648,776,47,0.121908007317485,1
648,777,47,0.124557295820466,1
648,778,47,0.138972450989158,1
648,779,47,0.156590277829465,1
648,780,47,0.14216124951232,1
648,781,47,0.132103664404912,1
648,782,47,0.114309526099844,1
649,778,47,0.126616351340287,1
649,779,47,0.146457803629517,1
649,780,47,0.123516809686501,1
656,804,47,0.114710811040746,1
656,805,47,0.132496740870032,1
656,806,47,0.155038946567792,1
657,802,47,0.126398337992105,1
657,803,47,0.151461652780485,1
657,804,47,0.164282726662985,1
657,805,47,0.197527983954067,1
657,806,47,0.243724673260267,1
657,807,47,0.190903838212615,1
657,809,47,0.174642541489193,1
658,799,47,0.123221752079253,1
658,800,47,0.128669294666521,1
658,801,47,0.135936221768378,1
658,802,47,0.153186904803068,1
658,803,47,0.173787305461479,1
658,804,47,0.1831265370577,1
658,805,47,0.202570720317421,1
658,806,47,0.236089966402014,1
658,807,47,0.202370560698487,1
658,808,47,0.209696854983155,1
658,809,47,0.28261968193228,1
658,810,47,0.2207302947825,1
659,788,47,0.147178241646033,1
659,789,47,0.146873244363662,1
659,790,47,0.119711586429621,1
659,800,47,0.121225702793915,1
659,801,47,0.143788364908368,1
659,802,47,0.174668344603166,1
659,804,47,0.195403237074253,1
659,805,47,0.190406088960187,1
659,806,47,0.182543487962959,1
659,808,47,0.192717463839603,1
659,809,47,0.248868879103308,1
659,810,47,0.191367481660357,1
660,794,47,0.115183110485189,1
660,796,47,0.116015958690145,1
660,801,47,0.143855528376642,1
660,802,47,0.189077611338729,1
660,804,47,0.232560651567845,1
660,805,47,0.226592630376269,1
660,806,47,0.18008089812078,1
660,809,47,0.167415973708005,1
661,794,47,0.136831216496582,1
661,795,47,0.14277184469724,1
661,796,47,0.155449464571842,1
661,797,47,0.150517371866988,1
661,798,47,0.118200166967699,1
661,801,47,0.126185859771063,1
661,802,47,0.15724133832685,1
661,803,47,0.19074970258702,1
661,804,47,0.230877596057067,1
662,796,47,0.122026753459973,1
662,797,47,0.129306894205772,1
639,782,48,0.212457046235694,1
639,783,48,0.191942569593507,1
639,784,48,0.175981370976092,1
640,781,48,0.189121303512549,1
640,782,48,0.273673102833995,1
640,783,48,0.269706630724299,6
640,784,48,0.226004705658897,1
640,785,48,0.183303778894895,1
641,781,48,0.183734871084298,1
641,782,48,0.2901360077309,6
641,783,48,0.337665320115481,6
641,784,48,0.274826058040731,6
641,785,48,0.172581177703585,1
642,781,48,0.154394952190163,1
642,782,48,0.244857160273446,6
642,783,48,0.370545953850324,6
642,784,48,0.332444588195491,6
642,785,48,0.176860773133369,6
642,788,48,0.169407948197617,1
642,789,48,0.201800725247689,1
642,790,48,0.205933816461214,1
642,791,48,0.180757090450761,1
643,781,48,0.120567635061106,1
643,782,48,0.163813277220177,1
643,783,48,0.262816575119589,6
643,784,48,0.255729257005045,6
643,785,48,0.153283145354135,1
643,788,48,0.13220295516434,1
643,789,48,0.166863921325257,1
643,790,48,0.178369754783975,1
643,791,48,0.148524596550471,1
644,780,48,0.119448314584405,1
644,781,48,0.115970229118462,1
644,782,48,0.121323874751049,1
644,783,48,0.150493712142675,1
644,784,48,0.157923442643694,1
644,785,48,0.133584581783223,1
645,780,48,0.117609062496438,1
645,781,48,0.132175997917473,1
645,782,48,0.127168686367825,1
645,783,48,0.132044285445235,1
645,784,48,0.139356282614265,1
645,785,48,0.129604071648947,1
646,781,48,0.124375519889761,1
646,782,48,0.125579268720671,1
646,783,48,0.127007743713532,1
646,784,48,0.124506796617948,1
647,776,48,0.140047678878586,1
647,777,48,0.137591731188976,1
647,778,48,0.123128208430559,1
648,776,48,0.134561614161785,1
648,777,48,0.130253094748469,1
648,778,48,0.126938001111548,1
648,779,48,0.126174565756321,1
651,776,48,0.125267452632737,1
652,776,48,0.115398886228783,1
656,805,48,0.118175906623206,1
656,806,48,0.142693552090351,1
656,807,48,0.118728406526871,1
657,804,48,0.114102088377561,1
657,805,48,0.155478188348647,1
657,806,48,0.199901328703737,1
657,807,48,0.164999961371879,1
657,808,48,0.140664645348152,1
657,809,48,0.166796428104728,1
658,801,48,0.118310257113486,1
658,802,48,0.135103856414939,1
658,803,48,0.126819690713112,1
658,804,48,0.135365927019796,1
658,805,48,0.162575799444302,1
658,806,48,0.193386919802085,1
658,807,48,0.17787750532809,1
658,808,48,0.19526455269719,1
658,809,48,0.261959643223134,1
658,810,48,0.204838073270763,1
659,801,48,0.114799596835471,1
659,802,48,0.130111996113823,1
659,803,48,0.137224175193039,1
659,804,48,0.162530199418147,1
659,805,48,0.172404194957447,1
659,806,48,0.158034474938782,1
659,807,48,0.14709420192841,1
659,808,48,0.176053669158055,1
659,809,48,0.228388343389678,1
660,802,48,0.126685140016105,1
660,803,48,0.156655403899876,1
660,804,48,0.218002678342032,1
660,805,48,0.231352156659832,1
660,806,48,0.165790789718023,1
660,807,48,0.124369231043179,1
661,794,48,0.119812207974936,1
661,803,48,0.148459776678583,1
661,804,48,0.223597090228414,1
661,805,48,0.252567733704138,1
661,806,48,0.185604825462602,1
662,804,48,0.148885981468489,1
662,805,48,0.170698963607505,1
639,783,49,0.19522853904017,1
640,782,49,0.2459912960479,1
640,783,49,0.268903377784251,6
640,784,49,0.217027671584466,1
641,781,49,0.158223222774311,1
641,782,49,0.24528176340954,6
641,783,49,0.332023164813286,6
641,784,49,0.271450690402297,6
641,785,49,0.157711906571953,1
641,788,49,0.158040057173388,1
641,789,49,0.180204284348573,1
642,782,49,0.224679549113725,6
642,783,49,0.382979427510515,6
642,784,49,0.3402673009467,6
642,785,49,0.171201400052704,6
642,787,49,0.129369182051415,1
642,788,49,0.175303141248248,1
642,789,49,0.2260084742561,1
642,790,49,0.231236083865985,1
642,791,49,0.187744587846896,1
643,780,49,0.130027885735002,1
643,781,49,0.117516661203771,1
643,782,49,0.153689635669923,1
643,783,49,0.251497051685086,6
643,784,49,0.242085945874088,6
643,785,49,0.1464217193113,1
643,788,49,0.127498367961874,1
643,789,49,0.167781209661289,1
643,790,49,0.177963747319703,1
643,791,49,0.140839885118083,1
644,779,49,0.11918504273919,1
644,780,49,0.122460577882348,1
644,781,49,0.118886098766076,1
644,783,49,0.132772496193481,1
644,784,49,0.14056372938118,1
644,785,49,0.124229357202623,1
645,780,49,0.127185362410448,1
645,781,49,0.129494900098728,1
645,784,49,0.117014342527234,1
646,777,49,0.115215685297261,1
647,776,49,0.162551209347553,1
647,777,49,0.15714010438449,1
647,778,49,0.13185095640873,1
648,775,49,0.145554659309862,1
648,776,49,0.136490888615435,1
648,777,49,0.128050985634202,1
651,775,49,0.11685825194184,1
651,776,49,0.129106110412926,1
652,775,49,0.121436544030547,1
652,776,49,0.127873213838025,1
656,806,49,0.116159165383852,1
657,805,49,0.117933550492466,1
657,806,49,0.141073597028989,1
657,807,49,0.129551487941101,1
657,808,49,0.130537129208899,1
657,809,49,0.154028550327119,1
658,802,49,0.117025848525569,1
658,805,49,0.133374906456351,1
658,806,49,0.145567814069474,1
658,807,49,0.144406108651107,1
658,808,49,0.172878873328874,1
658,809,49,0.218644941520322,1
658,810,49,0.180519739488181,1
659,804,49,0.137518938378631,1
659,805,49,0.157859058515857,1
659,806,49,0.138557222238605,1
659,807,49,0.13019706041881,1
659,808,49,0.161947868712249,1
659,809,49,0.203570599816526,1
659,810,49,0.17328612914097,1
660,803,49,0.121223441635594,1
660,804,49,0.189861561994979,1
660,805,49,0.21851506623922,1
660,806,49,0.154917103109479,1
660,808,49,0.12755680477225,1
660,809,49,0.158029952622138,1
660,810,49,0.166241655265875,1
661,803,49,0.118225899420475,1
661,804,49,0.19430246516191,1
661,805,49,0.232356582029312,1
661,806,49,0.168804513347382,1
661,810,49,0.199619908707617,1
662,804,49,0.124340731026833,1
662,805,49,0.147471509169609,1
662,806,49,0.135005413589882,1
663,805,49,0.114276221122064,1
639,783,50,0.177358781476855,1
640,782,50,0.212723792256456,1
640,783,50,0.253138958825155,1
640,784,50,0.202343426798627,1
641,782,50,0.210739790705301,1
641,783,50,0.303298634288638,6
641,784,50,0.24898921512274,1
641,785,50,0.14462150753498,1
641,788,50,0.16166071338226,1
641,789,50,0.194140792341909,1
641,790,50,0.203937543415417,1
641,791,50,0.182300119021721,1
642,782,50,0.199811588982845,6
642,783,50,0.337887808672842,6
642,784,50,0.297660647997099,6
642,785,50,0.160712710979026,1
642,787,50,0.123310537873978,1
642,788,50,0.172296660391638,1
642,789,50,0.222650701255857,1
642,790,50,0.23240745809155,1
642,791,50,0.181753319121325,1
642,792,50,0.129996547493888,1
643,780,50,0.120320815498055,1
643,781,50,0.121608286071199,1
643,782,50,0.142150332357298,1
643,783,50,0.213583079526163,6
643,784,50,0.205919542899308,1
643,785,50,0.139401223135908,1
643,788,50,0.119052658985575,1
643,789,50,0.150252698574688,1
643,790,50,0.159358642227188,1
643,791,50,0.127364370777581,1
644,780,50,0.120770373813752,1
644,781,50,0.116584051164737,1
644,783,50,0.113836732027018,1
644,784,50,0.1219816833928,1
644,785,50,0.114475438591698,1
645,780,50,0.123397215609643,1
645,781,50,0.116199724911247,1
646,776,50,0.11465747361346,1
646,777,50,0.119420733163627,1
646,778,50,0.115960089236613,1
647,775,50,0.175203803381355,1
647,776,50,0.158591344059829,1
647,777,50,0.153051141088836,1
647,778,50,0.127817862566609,1
648,775,50,0.137286168617026,1
648,776,50,0.12058717288223,1
648,777,50,0.113784843154282,1
652,775,50,0.120662839247943,1
652,776,50,0.118552106838977,1
657,809,50,0.12946316144416,1
657,810,50,0.125549591017699,1
658,808,50,0.135127951883305,1
658,809,50,0.161945489785264,1
658,810,50,0.146001673822448,1
659,805,50,0.132039845566655,1
659,806,50,0.117886819887151,1
659,808,50,0.131666636674914,1
659,809,50,0.163218439482312,1
659,810,50,0.159560450607399,1
659,811,50,0.126773219198855,1
660,804,50,0.142176559438456,1
660,805,50,0.176312936868742,1
660,806,50,0.136236496527379,1
660,809,50,0.142760067830981,1
660,810,50,0.168574605364278,1
660,811,50,0.166220315584214,1
661,804,50,0.142079541614216,1
661,805,50,0.178529413759846,1
661,806,50,0.138612679501818,1
661,809,50,0.129204965428302,1
661,810,50,0.175349082803524,1
661,811,50,0.200068206898624,1
661,812,50,0.188974139791779,1
662,805,50,0.118268519899465,1
662,809,50,0.131934159968849,1
662,810,50,0.190096922667161,1
662,811,50,0.209860741854012,1
662,812,50,0.190355990171122,1
663,806,50,0.121080682462805,1
663,807,50,0.128362683953473,1
664,806,50,0.173174060481651,1
664,807,50,0.206694649128997,1
664,808,50,0.181798424519096,1
640,783,51,0.225911715522918,1
640,784,51,0.188168555032213,1
641,782,51,0.201745703728528,1
641,783,51,0.273786490502334,1
641,784,51,0.237278087331399,1
641,785,51,0.157772109912268,1
641,787,51,0.12346178816734,1
641,788,51,0.170064119854958,1
641,789,51,0.213153271015182,1
641,790,51,0.233656983601609,1
641,791,51,0.189968071973423,1
642,781,51,0.155708473191471,1
642,782,51,0.20159491273295,1
642,783,51,0.284630511184773,6
642,784,51,0.262577222089746,1
642,785,51,0.180822452058497,1
642,786,51,0.122024704285244,1
642,787,51,0.125928817888099,1
642,788,51,0.171577235185621,1
642,789,51,0.210361541314801,1
642,790,51,0.224228683565873,1
642,791,51,0.176178303733672,1
642,792,51,0.121993472035925,1
643,780,51,0.123565848557602,1
643,781,51,0.143479728574324,1
643,782,51,0.154998575470257,1
643,783,51,0.188025030363117,1
643,784,51,0.190665132910415,1
643,785,51,0.158238921337034,1
643,788,51,0.119659556234489,1
643,789,51,0.136763287532001,1
643,790,51,0.142693351883625,1
643,791,51,0.121091752717088,1
644,780,51,0.121226951141739,1
644,781,51,0.12065935329553,1
644,784,51,0.121147103988504,1
644,785,51,0.118273525067625,1
645,779,51,0.119787723869984,1
645,780,51,0.121336099138225,1
646,776,51,0.122656427168232,1
646,777,51,0.129416513276909,1
646,778,51,0.127672159177255,1
646,779,51,0.122474027063616,1
647,775,51,0.160044468033769,1
647,776,51,0.143925023664435,1
647,777,51,0.146627849801428,1
647,778,51,0.127798395406683,1
648,775,51,0.120367345896643,1
658,810,51,0.115471396394338,1
659,809,51,0.127930496515508,1
659,810,51,0.148856468641644,1
659,811,51,0.125254486302986,1
659,813,51,0.12162981418272,1
659,814,51,0.187385605409595,1
660,805,51,0.117698095605354,1
660,809,51,0.121462665119909,1
660,810,51,0.159859453464844,1
660,811,51,0.162121283067909,1
660,812,51,0.148298692701895,1
660,813,51,0.160516814585677,1
660,814,51,0.215830388253132,1
661,805,51,0.116109443454507,1
661,810,51,0.1418769324071,1
661,811,51,0.176273566804839,1
661,812,51,0.193805987811038,1
661,813,51,0.203804464826693,1
661,814,51,0.22325061482308,1
662,810,51,0.134067456853566,1
662,811,51,0.158089731995268,1
662,812,51,0.17797115496858,1
662,813,51,0.203459708843833,1
662,814,51,0.233868660995744,1
663,810,51,0.125298037154411,1
663,811,51,0.125938898885616,1
663,812,51,0.121771124800959,1
664,806,51,0.150072524297795,1
664,807,51,0.189476870658635,1
664,808,51,0.162772920631741,1
664,809,51,0.12072124072772,1
665,806,51,0.210824065960249,1
665,807,51,0.282407839662017,1
665,808,51,0.223788016784201,1
665,809,51,0.13972148323695,1
640,783,52,0.190478104497359,1
640,784,52,0.166365877651173,1
640,785,52,0.122214641584266,1
640,788,52,0.131410266073326,1
640,789,52,0.15040268874336,1
640,790,52,0.153801221477725,1
641,781,52,0.177023423433269,1
641,782,52,0.20064101011972,1
641,783,52,0.245405561827653,1
641,784,52,0.227063516596761,1
641,785,52,0.177903956169707,1
641,786,52,0.124739107081769,1
641,787,52,0.123518870638096,1
641,788,52,0.171746975159009,1
641,789,52,0.219182932324756,1
641,790,52,0.23712962815534,1
641,791,52,0.178867928003588,1
641,792,52,0.119065943290715,1
642,780,52,0.142374375461005,1
642,781,52,0.180822134083108,1
642,782,52,0.208726653187023,1
642,783,52,0.23859415213582,1
642,784,52,0.238886760154886,1
642,785,52,0.214273109673998,1
642,786,52,0.144751630130274,1
642,787,52,0.126616951960467,1
642,788,52,0.164241495854213,1
642,789,52,0.193189409978058,1
642,790,52,0.200141011485836,1
642,791,52,0.158113603703174,1
643,780,52,0.127329570137787,1
643,781,52,0.16208419771606,1
643,782,52,0.168556021469321,1
643,783,52,0.167356300326671,1
643,784,52,0.178633167951586,1
643,785,52,0.179476120707792,1
643,786,52,0.126088394425906,1
643,788,52,0.127755739597094,1
643,789,52,0.140261169910126,1
643,790,52,0.133192400359939,1
643,791,52,0.114223719852282,1
644,780,52,0.11762363048,1
644,781,52,0.119910756791789,1
644,784,52,0.114733328409033,1
644,785,52,0.115895080934865,1
645,779,52,0.127149124992969,1
645,780,52,0.118563047547731,1
646,775,52,0.14690718529222,1
646,776,52,0.13274221787033,1
646,777,52,0.141817965637742,1
646,778,52,0.143893520547193,1
646,779,52,0.138472040164955,1
646,780,52,0.115349376283031,1
647,775,52,0.135111016749624,1
647,776,52,0.127268012457852,1
647,777,52,0.137710983736713,1
647,778,52,0.128302186191502,1
658,814,52,0.126020359469528,1
659,810,52,0.128339565965007,1
659,813,52,0.131936079598049,1
659,814,52,0.187357929773887,1
659,815,52,0.201413007256717,1
660,810,52,0.133311429147216,1
660,811,52,0.139009265473083,1
660,812,52,0.140413020823666,1
660,813,52,0.171342157158229,1
660,814,52,0.215977763957494,1
660,815,52,0.224438476661407,1
660,816,52,0.221873640066369,1
661,811,52,0.14014496757075,1
661,812,52,0.17250652414837,1
661,813,52,0.19495684673558,1
661,814,52,0.216050686313369,1
661,815,52,0.207413297061841,1
661,816,52,0.200535866257761,1
662,812,52,0.147358003732607,1
662,813,52,0.173042300901948,1
662,814,52,0.204707373609023,1
662,815,52,0.204498404894126,1
662,816,52,0.179305744783626,1
663,813,52,0.118013586075561,1
663,814,52,0.161706431177077,1
663,815,52,0.200478819117604,1
664,806,52,0.118549197953011,1
664,807,52,0.158286382108057,1
664,808,52,0.131430168977304,1
665,806,52,0.202842648159337,1
665,807,52,0.293763635844598,1
665,808,52,0.21530280819847,1
665,809,52,0.11881727475966,1
666,806,52,0.163903287808993,1
666,807,52,0.219317023723979,1
666,808,52,0.15650612034318,1
640,783,53,0.153315095992295,1
640,784,53,0.141198420034466,1
640,785,53,0.119334891585467,1
640,788,53,0.121105201898355,1
640,789,53,0.140795556993485,1
640,790,53,0.14107472760815,1
640,791,53,0.113872533700445,1
641,780,53,0.192258731345091,1
641,781,53,0.196721610144461,1
641,782,53,0.196582372254683,1
641,783,53,0.213962388834626,1
641,784,53,0.211162580203992,1
641,785,53,0.198826595442692,1
641,786,53,0.139801766134236,1
641,787,53,0.118809384259267,1
641,788,53,0.157608470355602,1
641,789,53,0.197982900743912,1
641,790,53,0.207964454402753,1
641,791,53,0.158952104803934,1
642,779,53,0.115228180552361,1
642,780,53,0.160397962451393,1
642,781,53,0.19737177560001,1
642,782,53,0.205025278336813,1
642,783,53,0.200054899039752,1
642,784,53,0.219099764095237,1
642,785,53,0.244257576458478,1
642,786,53,0.168040701132435,1
642,787,53,0.121577783987589,1
642,788,53,0.146640639478185,1
642,789,53,0.170575966016298,1
642,790,53,0.167695226760733,1
642,791,53,0.136909096913151,1
643,780,53,0.13248349189549,1
643,781,53,0.16875991435486,1
643,782,53,0.168791523463899,1
643,783,53,0.147005239480691,1
643,784,53,0.162883104992459,1
643,785,53,0.18937143237502,1
643,786,53,0.137450126149081,1
643,788,53,0.132514194185827,1
643,789,53,0.148322187550081,1
643,790,53,0.127446078675685,1
644,780,53,0.119058488534373,1
644,781,53,0.121060178938648,1
645,776,53,0.124558614829487,1
645,778,53,0.117323426382197,1
645,779,53,0.13122805439857,1
645,780,53,0.121720872912633,1
646,775,53,0.145451458630837,1
646,776,53,0.139890740358821,1
646,777,53,0.148272972025986,1
646,778,53,0.150444473064847,1
646,779,53,0.144277387502898,1
646,780,53,0.116156762903135,1
647,777,53,0.124503345996134,1
647,778,53,0.122415649137571,1
648,774,53,0.124726270297547,1
655,776,53,0.118067630114823,1
655,777,53,0.117595389554711,1
656,775,53,0.12173328572967,1
656,776,53,0.126274445359062,1
656,777,53,0.114370082746147,1
657,776,53,0.118278695111913,1
658,815,53,0.11434111165515,1
659,813,53,0.124954411750712,1
659,814,53,0.155030325901691,1
659,815,53,0.142751882908931,1
659,816,53,0.133937875994121,1
660,811,53,0.115569721450733,1
660,812,53,0.128070276141134,1
660,813,53,0.16734440569175,1
660,814,53,0.197359586543432,1
660,815,53,0.177990363037448,1
660,816,53,0.184741875587489,1
660,817,53,0.214147615387145,1
661,812,53,0.143918075313342,1
661,813,53,0.175721537975824,1
661,814,53,0.198256665776964,1
661,815,53,0.184928727347551,1
661,816,53,0.190012470759219,1
661,817,53,0.257922627684548,1
662,812,53,0.119486400969886,1
662,813,53,0.142282798548977,1
662,814,53,0.169398550258342,1
662,815,53,0.178540707774588,1
662,816,53,0.170140398617716,1
662,817,53,0.199074168725184,1
663,814,53,0.131490737400473,1
663,815,53,0.177763069518653,1
663,816,53,0.201470454810327,1
664,807,53,0.129222783826952,1
664,815,53,0.153635179440343,1
664,816,53,0.232234267496348,1
665,806,53,0.171243054828661,1
665,807,53,0.244882080122449,1
665,808,53,0.178024916363051,1
666,806,53,0.149764712344389,1
666,807,53,0.200724249010437,1
666,808,53,0.146163523295442,1
640,782,54,0.118257590967577,1
640,783,54,0.119722974659293,1
640,784,54,0.117487171930659,1
640,785,54,0.116056035366024,1
640,789,54,0.125911447010367,1
640,790,54,0.123629325866737,1
641,780,54,0.202484749193732,1
641,781,54,0.205800078367979,1
641,782,54,0.189213045300705,1
641,783,54,0.181578126458859,1
641,784,54,0.191838874286098,1
641,785,54,0.210411145475483,1
641,786,54,0.149566036610603,1
641,788,54,0.136120529725329,1
641,789,54,0.166698079494601,1
641,790,54,0.167261684983148,1
641,791,54,0.137480227819238,1
642,779,54,0.120942575152188,1
642,780,54,0.16986888296612,1
642,781,54,0.19914869273487,1
642,782,54,0.192120188290422,1
642,783,54,0.171754771444472,1
642,784,54,0.199788105911525,1
642,785,54,0.24947486953352,1
642,786,54,0.17565793112116,1
642,787,54,0.114357187077593,1
642,788,54,0.125875103601092,1
642,789,54,0.151283704331315,1
642,790,54,0.143294867104659,1
642,791,54,0.121295386511569,1
643,780,54,0.134423518628035,1
643,781,54,0.162172783304059,1
643,782,54,0.155296530186605,1
643,783,54,0.129815784373681,1
643,784,54,0.143093223600576,1
643,785,54,0.176854837592775,1
643,786,54,0.13450547384033,1
643,788,54,0.119569451430743,1
643,789,54,0.141644480620884,1
643,790,54,0.117719800369869,1
644,776,54,0.115943578070118,1
644,780,54,0.125855506895638,1
644,781,54,0.123167307626538,1
645,775,54,0.148620978423933,1
645,776,54,0.13811338747991,1
645,777,54,0.121453267180634,1
645,778,54,0.118939954375478,1
645,779,54,0.133086373233011,1
645,780,54,0.126406899773875,1
646,775,54,0.139364785511703,1
646,776,54,0.142130464783919,1
646,777,54,0.144266588116539,1
646,778,54,0.143221556112198,1
646,779,54,0.135504316975203,1
648,774,54,0.12783891960348,1
649,773,54,0.210387803726558,1
649,774,54,0.123041789785952,1
650,773,54,0.133067612685061,1
654,774,54,0.124333747345141,1
654,775,54,0.116552418501966,1
654,776,54,0.118988475064464,1
654,812,54,0.117540591796009,1
655,774,54,0.136857455354607,1
655,775,54,0.134912187916577,1
655,776,54,0.15141290833104,1
655,777,54,0.129542478638413,1
656,775,54,0.130678981562986,1
656,776,54,0.143400387826338,1
656,777,54,0.119745327151452,1
657,775,54,0.123076437326486,1
657,776,54,0.135338145392292,1
658,776,54,0.116636658426315,1
659,818,54,0.129135905884561,1
660,813,54,0.140501983271385,1
660,814,54,0.159097572655963,1
660,815,54,0.138801780643335,1
660,816,54,0.151693339070394,1
660,817,54,0.192940529463411,1
660,818,54,0.221415402200239,1
660,819,54,0.191463957748749,1
661,813,54,0.142129911271205,1
661,814,54,0.163415996413803,1
661,815,54,0.152139717632202,1
661,816,54,0.168576466109147,1
661,817,54,0.240222209681168,1
661,818,54,0.309005397479129,1
661,819,54,0.245413263898186,1
662,814,54,0.130522278580547,1
662,815,54,0.141256880398574,1
662,816,54,0.151043232499176,1
662,817,54,0.183856196360496,1
662,818,54,0.238455232221431,1
663,815,54,0.135967501125162,1
663,816,54,0.163561582034494,1
663,817,54,0.153883047144491,1
664,815,54,0.125853540158973,1
664,816,54,0.188353840469062,1
664,817,54,0.191895297252344,1
665,806,54,0.117235017447192,1
665,807,54,0.15300743713815,1
665,808,54,0.117411658664208,1
665,816,54,0.177620369230195,1
665,817,54,0.237298390648829,1
666,806,54,0.11647798870721,1
666,807,54,0.145422758407764,1
666,808,54,0.115839470572391,1
640,781,55,0.115042612470722,1
641,779,55,0.151092283147144,1
641,780,55,0.193101071704251,1
641,781,55,0.199046705073069,1
641,782,55,0.1750812415342,1
641,783,55,0.151579798302793,1
641,784,55,0.169359368624299,1
641,785,55,0.198964055025665,1
641,786,55,0.145185065916063,1
641,789,55,0.130024953295304,1
641,790,55,0.128750048638458,1
641,791,55,0.113924434350047,1
642,778,55,0.126578052971214,1
642,779,55,0.139736887378016,1
642,780,55,0.176366156527366,1
642,781,55,0.192665492528803,1
642,782,55,0.174616585275959,1
642,783,55,0.15134148163718,1
642,784,55,0.178667521070462,1
642,785,55,0.223048123384626,1
642,786,55,0.161541931909174,1
642,789,55,0.131652492658537,1
642,790,55,0.126041593159393,1
643,780,55,0.13656909878426,1
643,781,55,0.151519182772159,1
643,782,55,0.137891004914345,1
643,783,55,0.11938890029413,1
643,784,55,0.129980636947572,1
643,785,55,0.155111138757959,1
643,786,55,0.124013463690367,1
643,789,55,0.121187357317377,1
644,776,55,0.125608616671388,1
644,780,55,0.133084300504549,1
644,781,55,0.128257822736305,1
645,775,55,0.1517287992147,1
645,776,55,0.150038960228957,1
645,777,55,0.129554008190481,1
645,778,55,0.11647087547999,1
645,779,55,0.129041113888044,1
645,780,55,0.127119506174328,1
646,774,55,0.143490751721142,1
646,775,55,0.138792736010049,1
646,776,55,0.146175182393039,1
646,777,55,0.140011629890968,1
646,778,55,0.129387071111262,1
646,779,55,0.119231231608657,1
647,774,55,0.138389672762341,1
648,774,55,0.129010600027567,1
649,773,55,0.221609343633789,1
649,774,55,0.126841525023156,1
650,773,55,0.149751074733261,1
654,773,55,0.13973294212782,1
654,774,55,0.149302541004928,1
654,775,55,0.164279511578497,1
654,776,55,0.159517323723159,1
654,812,55,0.114519484071506,1
655,774,55,0.155948356180297,1
655,775,55,0.172501730963803,1
655,776,55,0.188162478169223,1
655,777,55,0.136139148950884,1
656,775,55,0.140651667241535,1
656,776,55,0.159311358109159,1
656,777,55,0.125675450387407,1
657,775,55,0.132642456036252,1
657,776,55,0.152913387084207,1
657,777,55,0.132865309676467,1
658,776,55,0.135620154231725,1
658,777,55,0.137924757413043,1
659,818,55,0.122369201177046,1
659,819,55,0.13911551636047,1
660,814,55,0.115054248014585,1
660,816,55,0.121628754264757,1
660,817,55,0.162359976593243,1
660,818,55,0.204086261682534,1
660,819,55,0.186731518257582,1
660,820,55,0.154260849014074,1
661,814,55,0.125559954660007,1
661,815,55,0.120326515501324,1
661,816,55,0.141757562090701,1
661,817,55,0.200527174930462,1
661,818,55,0.257293389720341,1
661,819,55,0.218152974709227,1
661,820,55,0.157390492338018,1
662,816,55,0.129933847457926,1
662,817,55,0.160424448623609,1
662,818,55,0.193006209046536,1
662,819,55,0.181606791351333,1
662,820,55,0.164238057009266,1
663,816,55,0.120702303526776,1
663,817,55,0.126347673913459,1
663,818,55,0.134200747425883,1
663,819,55,0.151146562723731,1
663,820,55,0.186271831836902,1
664,816,55,0.129851444724713,1
664,817,55,0.144862579987298,1
664,818,55,0.144758307613443,1
664,819,55,0.145647708330173,1
665,816,55,0.131166626264164,1
665,817,55,0.182468952176407,1
665,818,55,0.210571310856603,1
666,816,55,0.118949458306549,1
666,817,55,0.181845166901278,1
641,779,56,0.155100256933536,1
641,780,56,0.17229064241298,1
641,781,56,0.17557479822224,1
641,782,56,0.150315905015899,1
641,783,56,0.124049147595131,1
641,784,56,0.14221429251795,1
641,785,56,0.167047487339633,1
641,786,56,0.127576943213553,1
642,778,56,0.143739479136528,1
642,779,56,0.171493466335922,1
642,780,56,0.183589579885263,1
642,781,56,0.18261824750997,1
642,782,56,0.157354737772056,1
642,783,56,0.136206948369936,1
642,784,56,0.157088356834148,1
642,785,56,0.181428265835716,1
642,786,56,0.137941021265346,1
642,790,56,0.11639655167703,1
643,777,56,0.118488323331319,1
643,779,56,0.119589118797395,1
643,780,56,0.139644721622675,1
643,781,56,0.144307383181259,1
643,782,56,0.126923362466788,1
643,783,56,0.115749613082836,1
643,784,56,0.123020709195349,1
643,785,56,0.132095809235117,1
644,776,56,0.138211995181095,1
644,777,56,0.117857625035696,1
644,780,56,0.132529951632881,1
644,781,56,0.128867675978651,1
645,775,56,0.151622136136994,1
645,776,56,0.156615315447131,1
645,777,56,0.135814484301861,1
645,778,56,0.11669934668541,1
645,779,56,0.121966255698001,1
645,780,56,0.122231235188824,1
646,774,56,0.139027943582969,1
646,775,56,0.145470890460164,1
646,776,56,0.150826714813008,1
646,777,56,0.13483096286999,1
646,778,56,0.117653261075507,1
647,773,56,0.183389596919323,1
647,774,56,0.150926476647087,1
647,775,56,0.129633254723536,1
647,776,56,0.118931592800434,1
648,774,56,0.135963061246582,1
649,773,56,0.207507347115784,1
649,774,56,0.130105577721712,1
650,772,56,0.170885085201859,1
650,773,56,0.165285008642807,1
650,774,56,0.125040276882605,1
651,773,56,0.126830195677815,1
653,775,56,0.11517171047865,1
654,773,56,0.145444404287948,1
654,774,56,0.159426276770112,1
654,775,56,0.203736818506903,1
654,776,56,0.189913815950569,1
655,773,56,0.190012612081614,1
655,774,56,0.169164532148913,1
655,775,56,0.207443280963336,1
655,776,56,0.210889451121718,1
655,777,56,0.133600115469818,1
656,774,56,0.12080333726241,1
656,775,56,0.156135773229939,1
656,776,56,0.178430982711655,1
656,777,56,0.139822375650189,1
657,775,56,0.137080049903764,1
657,776,56,0.174307937165048,1
657,777,56,0.167228745088222,1
658,776,56,0.146212903695665,1
658,777,56,0.162275960429353,1
658,778,56,0.123140197280411,1
659,820,56,0.115043943256609,1
660,817,56,0.116422814088788,1
660,818,56,0.155780323852516,1
660,819,56,0.15197729109276,1
660,820,56,0.130788553526658,1
660,821,56,0.128733855447352,1
661,817,56,0.139234556924614,1
661,818,56,0.176725786692311,1
661,819,56,0.164871063570676,1
661,820,56,0.136240759752965,1
661,821,56,0.135132686183541,1
662,817,56,0.120996006794404,1
662,818,56,0.136677775706096,1
662,819,56,0.138108358758017,1
662,820,56,0.141218782236227,1
662,821,56,0.158392150143927,1
663,819,56,0.120242452229968,1
663,820,56,0.150349598630266,1
663,821,56,0.184346302426722,1
664,819,56,0.116148201121365,1
664,820,56,0.133833356306074,1
664,821,56,0.159775672838278,1
665,817,56,0.121862901919714,1
665,818,56,0.148085672745006,1
665,819,56,0.137897917934839,1
665,820,56,0.131106116725326,1
666,817,56,0.127574764493295,1
666,818,56,0.170675963387701,1
666,819,56,0.163481440459603,1
641,779,57,0.141399298042242,1
641,780,57,0.143631921016986,1
641,781,57,0.140005588358577,1
641,782,57,0.119148298916462,1
641,785,57,0.125381040507803,1
642,778,57,0.141929869420933,1
642,779,57,0.183619669778554,1
642,780,57,0.180918987031221,1
642,781,57,0.164932680134942,1
642,782,57,0.139075109932336,1
642,783,57,0.124039007713282,1
642,784,57,0.13507439069556,1
642,785,57,0.13937027353138,1
642,786,57,0.114044334625428,1
642,790,57,0.114281673811142,1
642,791,57,0.114342960623153,1
643,777,57,0.122782192323009,1
643,778,57,0.115922521033248,1
643,779,57,0.131338568511543,1
643,780,57,0.140356244551433,1
643,781,57,0.138833154215049,1
643,782,57,0.124601011548018,1
643,783,57,0.11971448353872,1
643,784,57,0.11937781826298,1
644,776,57,0.153998542871892,1
644,777,57,0.136976260381425,1
644,780,57,0.12494541422489,1
644,781,57,0.125161213522217,1
645,775,57,0.154938949196389,1
645,776,57,0.164051758761918,1
645,777,57,0.139015672088328,1
645,778,57,0.115602425808333,1
646,774,57,0.150991225857777,1
646,775,57,0.16187237899953,1
646,776,57,0.157590145551703,1
646,777,57,0.127887970251447,1
647,773,57,0.189234255436837,1
647,774,57,0.180491109926306,1
647,775,57,0.155035919913164,1
647,776,57,0.131965545317428,1
648,774,57,0.146763472193264,1
649,773,57,0.168525849137966,1
649,774,57,0.1301251626503,1
650,772,57,0.137503275146507,1
650,773,57,0.160034646127309,1
650,774,57,0.143314899554166,1
650,813,57,0.13579393367024,1
651,773,57,0.136886485329935,1
651,774,57,0.125007336987679,1
651,814,57,0.142971686340785,1
653,775,57,0.11708058739994,1
654,773,57,0.143944455493762,1
654,774,57,0.157004093356067,1
654,775,57,0.213775254429774,1
654,776,57,0.197958287093431,1
655,773,57,0.18900413547014,1
655,774,57,0.177181775176985,1
655,775,57,0.224838395485824,1
655,776,57,0.217417580072562,1
655,777,57,0.132448773693759,1
656,774,57,0.142607957826382,1
656,775,57,0.175395318780456,1
656,776,57,0.202520809958217,1
656,777,57,0.168867366482605,1
657,775,57,0.142540841465574,1
657,776,57,0.198249693872138,1
657,777,57,0.212829854713983,1
657,778,57,0.130090738870225,1
658,776,57,0.148163965351894,1
658,777,57,0.181315879201008,1
658,778,57,0.142699464077213,1
659,777,57,0.115566376820715,1
659,778,57,0.124732064515746,1
659,779,57,0.121669784866802,1
660,779,57,0.126856858503025,1
660,780,57,0.141764581102991,1
660,781,57,0.122708740008153,1
661,819,57,0.118718290198755,1
661,820,57,0.115954836754262,1
661,821,57,0.11818637625731,1
661,822,57,0.128238390906978,1
662,820,57,0.117669689803938,1
662,821,57,0.134458743235015,1
662,822,57,0.139339736117171,1
663,820,57,0.114165000397116,1
663,821,57,0.135899171747128,1
663,822,57,0.135168063889782,1
664,821,57,0.116786683925586,1
664,822,57,0.115798286871084,1
665,820,57,0.117062038835583,1
665,821,57,0.12594398649184,1
666,819,57,0.123205240912758,1
666,820,57,0.141488378258624,1
641,780,58,0.118034654889298,1
642,778,58,0.131083858448097,1
642,779,58,0.17795960186278,1
642,780,58,0.169732648177238,1
642,781,58,0.142164582365471,1
642,782,58,0.118523759921892,1
642,791,58,0.120944918748573,1
643,777,58,0.128752262689314,1
643,778,58,0.13119503206558,1
643,779,58,0.141806141664018,1
643,780,58,0.138225149940706,1
643,781,58,0.130632922239048,1
643,782,58,0.126090255170774,1
643,783,58,0.130310271434156,1
643,784,58,0.119258012202529,1
644,776,58,0.162666045570443,1
644,777,58,0.156454302131641,1
644,778,58,0.133766722796782,1
644,779,58,0.115371328361737,1
644,781,58,0.115660462205257,1
644,782,58,0.114720632947206,1
644,783,58,0.114177754743274,1
645,775,58,0.159021776744722,1
645,776,58,0.169734850451228,1
645,777,58,0.144677188558652,1
645,778,58,0.118190144854513,1
646,774,58,0.172729012705731,1
646,775,58,0.18413625024013,1
646,776,58,0.164569740670579,1
646,777,58,0.123929977485458,1
647,774,58,0.207629284789028,1
647,775,58,0.179088308501889,1
647,776,58,0.141417764168536,1
648,773,58,0.155068082534917,1
648,774,58,0.152862299038376,1
648,775,58,0.131398241892876,1
648,776,58,0.114680968461646,1
649,774,58,0.126092057031312,1
649,775,58,0.12595264248854,1
649,776,58,0.114855430958404,1
650,773,58,0.134714819414946,1
650,774,58,0.142279677679418,1
650,775,58,0.136713718701918,1
650,813,58,0.131453428288165,1
651,773,58,0.121923635219011,1
651,774,58,0.116413392595781,1
651,814,58,0.124256938623401,1
652,816,58,0.125721121074759,1
654,774,58,0.143249149309843,1
654,775,58,0.190885254317658,1
654,776,58,0.180981816612711,1
655,773,58,0.179032639255084,1
655,774,58,0.182531016261591,1
655,775,58,0.222690624832474,1
655,776,58,0.216847202885916,1
655,777,58,0.139296091050816,1
656,774,58,0.181819045811916,1
656,775,58,0.197001393156171,1
656,776,58,0.231194558635557,1
656,777,58,0.204162175362438,1
657,775,58,0.150622433290883,1
657,776,58,0.212652754199183,1
657,777,58,0.242311072449491,1
657,778,58,0.145589942801174,1
658,776,58,0.139973932142073,1
658,777,58,0.181622690120783,1
658,778,58,0.15703644440768,1
658,779,58,0.119228888012271,1
658,821,58,0.118339687502267,1
658,822,58,0.134617130309329,1
659,777,58,0.115143811082483,1
659,778,58,0.144086119417989,1
659,779,58,0.166960621174108,1
659,780,58,0.152011561773573,1
660,779,58,0.165468586434049,1
660,780,58,0.198200796323432,1
660,781,58,0.161597848470171,1
661,780,58,0.124911649949327,1
661,781,58,0.120657445443196,1
661,823,58,0.150905160519158,1
662,822,58,0.117861275864236,1
662,823,58,0.156000186168702,1
666,820,58,0.128404998233941,1
666,821,58,0.150734560834533,1
666,822,58,0.137540454713286,1
641,792,59,0.113961083957845,1
642,779,59,0.149493149585327,1
642,780,59,0.147486100706904,1
642,781,59,0.123623590532869,1
642,791,59,0.118242846331021,1
643,778,59,0.141912816518591,1
643,779,59,0.143394734930534,1
643,780,59,0.132110012135825,1
643,781,59,0.123349260210237,1
643,782,59,0.127531814262049,1
643,783,59,0.137572723326835,1
643,784,59,0.117915673209485,1
644,777,59,0.170386688221786,1
644,778,59,0.149341498878513,1
644,779,59,0.120143420561598,1
644,782,59,0.114343467028402,1
644,783,59,0.121516190977055,1
645,776,59,0.16701513628802,1
645,777,59,0.14936486418117,1
645,778,59,0.121397798140555,1
646,775,59,0.197075658074799,1
646,776,59,0.161910795137266,1
646,777,59,0.121498996752317,1
647,774,59,0.213858045799573,1
647,775,59,0.194027498888499,1
647,776,59,0.148425823973159,1
648,774,59,0.152219870983959,1
648,775,59,0.156159762706509,1
648,776,59,0.142216530122539,1
649,774,59,0.117535822165174,1
649,775,59,0.147828254002321,1
649,776,59,0.149735482162334,1
649,777,59,0.119378878180943,1
650,774,59,0.118641917221067,1
650,775,59,0.14422795999521,1
650,776,59,0.138484535420056,1
650,813,59,0.117880837239092,1
650,814,59,0.144607222196208,1
651,816,59,0.129198547036191,1
652,817,59,0.157151315961168,1
654,774,59,0.125073617190984,1
654,775,59,0.157045312387973,1
654,776,59,0.161300023299352,1
655,774,59,0.181459662961162,1
655,775,59,0.209351698586842,1
655,776,59,0.225166216335003,1
655,777,59,0.164638576453861,1
656,774,59,0.221706173028169,1
656,775,59,0.213209847080689,1
656,776,59,0.254851480055312,1
656,777,59,0.231747435398942,1
656,778,59,0.122604938708948,1
657,775,59,0.161659241273978,1
657,776,59,0.212333718892232,1
657,777,59,0.239490607195439,1
657,778,59,0.157243469939643,1
657,821,59,0.124138145373449,1
657,822,59,0.1447460714494,1
658,776,59,0.131733647043926,1
658,777,59,0.165334153505705,1
658,778,59,0.162873542177056,1
658,779,59,0.146320815121195,1
658,821,59,0.125160118273655,1
658,822,59,0.16448905735984,1
658,823,59,0.151671893396937,1
659,778,59,0.161261289186227,1
659,779,59,0.223531540190817,1
659,780,59,0.211801404537335,1
659,781,59,0.132957734522866,1
659,823,59,0.120592496025779,1
660,778,59,0.129065480224333,1
660,779,59,0.212873476226605,1
660,780,59,0.254586995192872,1
660,781,59,0.190184507221527,1
661,780,59,0.139227302374998,1
661,781,59,0.127474873113688,1
661,823,59,0.135847942378902,1
661,824,59,0.1532533498825,1
662,823,59,0.138851137489826,1
662,824,59,0.164289686790944,1
666,821,59,0.121704597283463,1
666,822,59,0.1179017765073,1
642,780,60,0.115805953611018,1
643,778,60,0.144471564473773,1
643,779,60,0.135350546432462,1
643,780,60,0.120656609285692,1
643,781,60,0.118494694615965,1
643,782,60,0.128962821281155,1
643,783,60,0.137060900719227,1
644,777,60,0.179685419174943,1
644,778,60,0.160997887795483,1
644,779,60,0.12270478298109,1
644,783,60,0.121386633671342,1
645,776,60,0.161690508853895,1
645,777,60,0.149327272424072,1
645,778,60,0.122965534576926,1
646,776,60,0.153635544523197,1
646,777,60,0.115380926507738,1
647,775,60,0.1996271397035,1
647,776,60,0.155875056964702,1
648,775,60,0.182443113731835,1
648,776,60,0.171933179191427,1
648,777,60,0.12124010590135,1
649,775,60,0.159239118811528,1
649,776,60,0.17509710497305,1
649,777,60,0.138277745425418,1
650,775,60,0.135155015121967,1
650,776,60,0.155502342701344,1
650,777,60,0.136223907057348,1
651,817,60,0.132732996584049,1
652,817,60,0.120980225793617,1
652,818,60,0.144158288054423,1
654,775,60,0.126991597629892,1
654,776,60,0.151971920841746,1
654,777,60,0.140764513174027,1
655,774,60,0.170613216244274,1
655,775,60,0.190528874567801,1
655,776,60,0.23710211739576,1
655,777,60,0.215534058744328,1
655,778,60,0.118877489876841,1
656,775,60,0.219901132736683,1
656,776,60,0.254933305722078,1
656,777,60,0.243277552755886,1
656,778,60,0.14712886124581,1
657,776,60,0.196212319563099,1
657,777,60,0.207468412795933,1
657,778,60,0.158391325763289,1
657,821,60,0.129401415334365,1
657,822,60,0.161660371853139,1
657,823,60,0.140570571740477,1
658,777,60,0.137249754546553,1
658,778,60,0.151398246132548,1
658,779,60,0.161368941520699,1
658,780,60,0.12163173381192,1
658,822,60,0.164633465293905,1
658,823,60,0.163062101582726,1
658,824,60,0.114507836750776,1
659,778,60,0.160960084054792,1
659,779,60,0.258188667093335,1
659,780,60,0.250337760524302,1
659,781,60,0.146315986606029,1
659,823,60,0.115183993750158,1
660,778,60,0.134672799556135,1
660,779,60,0.23441864065003,1
660,780,60,0.269841004768312,1
660,781,60,0.189892005194258,1
661,779,60,0.114273948186876,1
661,780,60,0.135590429421288,1
661,781,60,0.118732516653196,1
661,824,60,0.118771439196181,1
662,824,60,0.123167390064602,1
662,825,60,0.116329423539355,1
643,780,61,0.127150279125863,1
643,781,61,0.130336486738448,1
643,782,61,0.132488555947982,1
643,783,61,0.127823762776604,1
644,778,61,0.190271962230365,1
644,779,61,0.142962771253027,1
644,780,61,0.114297407704464,1
644,781,61,0.114794791874038,1
644,782,61,0.115690069247031,1
644,783,61,0.1153146580813,1
645,777,61,0.156681689865366,1
645,778,61,0.136424938164386,1
646,777,61,0.117295585870361,1
646,779,61,0.116239059644552,1
647,776,61,0.171942376923975,1
647,777,61,0.115742040557832,1
647,779,61,0.122362370594616,1
647,780,61,0.132075929884872,1
647,781,61,0.122474050617348,1
648,776,61,0.202401910716468,1
648,777,61,0.134585874506278,1
649,775,61,0.159632654574432,1
649,776,61,0.186156206563973,1
649,777,61,0.152285962757403,1
650,775,61,0.118659982933908,1
650,776,61,0.157399902054159,1
650,777,61,0.15952537909968,1
651,776,61,0.119571512382339,1
651,777,61,0.135665789588478,1
654,776,61,0.148195963097519,1
654,777,61,0.174213580912583,1
654,778,61,0.119242443185335,1
655,775,61,0.173568291079664,1
655,776,61,0.230037034004712,1
655,777,61,0.259471050060255,1
655,778,61,0.172969896728189,1
656,775,61,0.22413435086714,1
656,776,61,0.231392881063355,1
656,777,61,0.237348206793104,1
656,778,61,0.179744939457015,1
657,776,61,0.180133540712956,1
657,777,61,0.17206648154061,1
657,778,61,0.153676186488656,1
657,779,61,0.114962718210022,1
657,821,61,0.122862086583709,1
657,822,61,0.161321598518338,1
657,823,61,0.144895378559829,1
658,778,61,0.129977598516077,1
658,779,61,0.156203030913143,1
658,780,61,0.133377909557247,1
658,822,61,0.141525793362728,1
658,823,61,0.151272822506892,1
659,778,61,0.14912839648356,1
659,779,61,0.254227023498805,1
659,780,61,0.25794509794537,1
659,781,61,0.149953813485906,1
660,779,61,0.224513825051731,1
660,780,61,0.251421538418634,1
660,781,61,0.174482847182724,1
661,780,61,0.124632585326458,1
642,787,62,0.125881604431267,1
643,781,62,0.136116560921399,1
643,782,62,0.125765402091892,1
643,786,62,0.134057540732176,1
643,787,62,0.145083502221447,1
644,780,62,0.125404488248525,1
644,781,62,0.128113709223896,1
644,782,62,0.115002476910512,1
645,779,62,0.120329871908208,1
645,783,62,0.115882856547688,1
646,778,62,0.120249871655712,1
646,779,62,0.135047763200948,1
646,780,62,0.129330659921883,1
646,781,62,0.124604415062367,1
646,782,62,0.138591174944029,1
646,783,62,0.120740236812995,1
647,777,62,0.127003127181959,1
647,779,62,0.135722718959973,1
647,780,62,0.14539179702637,1
647,781,62,0.13858317845184,1
647,782,62,0.132538619406448,1
648,776,62,0.212332729635466,1
648,777,62,0.142367721531569,1
649,776,62,0.178204866879486,1
649,777,62,0.150293858722263,1
650,776,62,0.145902807030205,1
650,777,62,0.164386810606981,1
650,778,62,0.123917965081874,1
651,776,62,0.128062350310141,1
651,777,62,0.167231595089857,1
651,778,62,0.149390926386201,1
652,777,62,0.128092287104171,1
652,778,62,0.124191259040276,1
653,777,62,0.123071903232976,1
654,776,62,0.145615333724828,1
654,777,62,0.195854962333342,1
654,778,62,0.162359493741726,1
655,775,62,0.159658351696608,1
655,776,62,0.203669407724437,1
655,777,62,0.267475738948895,1
655,778,62,0.231787971372605,1
655,779,62,0.133468344113249,1
656,776,62,0.212769462943808,1
656,777,62,0.224023247910855,1
656,778,62,0.208408960442825,1
656,779,62,0.132482691068585,1
657,776,62,0.176393879270539,1
657,777,62,0.148834375240542,1
657,778,62,0.14126057833458,1
657,822,62,0.137373187881812,1
657,823,62,0.127108318151382,1
658,779,62,0.137506030933211,1
658,780,62,0.13295473142197,1
658,823,62,0.120236575573705,1
659,778,62,0.128111989801422,1
659,779,62,0.214772001282454,1
659,780,62,0.232818140971727,1
659,781,62,0.145878464247648,1
660,779,62,0.189176242593647,1
660,780,62,0.209494457759631,1
660,781,62,0.151405029607513,1
642,786,63,0.128400369925501,1
642,787,63,0.150268185153819,1
643,781,63,0.137240439045343,1
643,782,63,0.119776347417178,1
643,786,63,0.158030459027387,1
643,787,63,0.169376668840833,1
644,780,63,0.138731767173427,1
644,781,63,0.142882700339334,1
644,782,63,0.120002298373219,1
644,784,63,0.120216731554059,1
644,785,63,0.120827632937502,1
644,786,63,0.1182646335336,1
645,779,63,0.14236904054059,1
645,780,63,0.127514184293259,1
645,781,63,0.123291023606587,1
645,782,63,0.125460369478923,1
645,783,63,0.144674962730929,1
645,784,63,0.134267510480704,1
646,778,63,0.141847655117581,1
646,779,63,0.15462381203217,1
646,780,63,0.151619474565219,1
646,781,63,0.141599964066426,1
646,782,63,0.160525894549563,1
646,783,63,0.169608154924016,1
646,784,63,0.119194664438923,1
647,777,63,0.153682981740487,1
647,778,63,0.129240790655462,1
647,779,63,0.146233583872816,1
647,780,63,0.156496698850173,1
647,781,63,0.151282915281275,1
647,782,63,0.153017141275947,1
647,783,63,0.127960562855067,1
648,777,63,0.159688488697365,1
648,780,63,0.113966948837242,1
649,776,63,0.17994528750581,1
649,777,63,0.152050048572507,1
650,776,63,0.138900506113183,1
650,777,63,0.160416299032158,1
650,778,63,0.14209646497103,1
651,776,63,0.129805090979118,1
651,777,63,0.184362424956631,1
651,778,63,0.196568699312956,1
651,779,63,0.153236968261534,1
652,776,63,0.131481257023134,1
652,777,63,0.164144525137438,1
652,778,63,0.160147162307546,1
652,779,63,0.122633615378288,1
653,776,63,0.144857621926603,1
653,777,63,0.163617828347746,1
653,778,63,0.141221502692333,1
654,776,63,0.148452934319286,1
654,777,63,0.198703244545497,1
654,778,63,0.203937873167673,1
654,779,63,0.152485780847216,1
655,776,63,0.1700773334989,1
655,777,63,0.2355860342948,1
655,778,63,0.271972146486504,1
655,779,63,0.193106406624666,1
656,776,63,0.200419887678845,1
656,777,63,0.204206032412386,1
656,778,63,0.220937261430132,1
656,779,63,0.155004899647438,1
657,777,63,0.138465150698194,1
657,778,63,0.131131754963172,1
658,779,63,0.117924152553192,1
658,780,63,0.129403264302368,1
659,779,63,0.162617218682934,1
659,780,63,0.196696925832782,1
659,781,63,0.146752354831516,1
660,779,63,0.146050500709957,1
660,780,63,0.166182182091268,1
660,781,63,0.13589623930743,1
662,784,63,0.12718557439404,1
642,786,64,0.146400426737104,1
642,787,64,0.162762015253586,1
643,785,64,0.116561922433037,1
643,786,64,0.176035744767609,1
643,787,64,0.178769355633002,1
644,781,64,0.149205511403822,1
644,782,64,0.127230585576881,1
644,783,64,0.122293440596403,1
644,784,64,0.125585239591865,1
644,785,64,0.131568700255106,1
644,786,64,0.1352050903573,1
644,787,64,0.114644943027761,1
645,780,64,0.164061215585524,1
645,781,64,0.149223647777861,1
645,782,64,0.142752118446256,1
645,783,64,0.17466169067373,1
645,784,64,0.166293944552064,1
645,785,64,0.124311229976854,1
646,779,64,0.173374738282701,1
646,780,64,0.174655507818944,1
646,781,64,0.163281563485459,1
646,782,64,0.180864036173257,1
646,783,64,0.233519571126101,1
646,784,64,0.188836515332679,1
647,778,64,0.158187268001623,1
647,779,64,0.156456492628765,1
647,780,64,0.165103138497172,1
647,781,64,0.161816485992266,1
647,782,64,0.165992127023584,1
647,783,64,0.174259133831272,1
647,784,64,0.120317164669514,1
648,777,64,0.185175935547189,1
648,778,64,0.134731224589645,1
648,779,64,0.123584385345094,1
648,780,64,0.132272285576005,1
648,781,64,0.13105913880582,1
648,782,64,0.1148257297017,1
649,776,64,0.187355032664787,1
649,777,64,0.158810664640166,1
649,778,64,0.120743887641536,1
650,776,64,0.13580923181951,1
650,777,64,0.154024911275445,1
650,778,64,0.16354147892379,1
650,779,64,0.144024997482106,1
651,776,64,0.128506031969575,1
651,777,64,0.188421098152266,1
651,778,64,0.230634709967346,1
651,779,64,0.192973716672528,1
652,776,64,0.165172280478977,1
652,777,64,0.195475134842763,1
652,778,64,0.183138302147092,1
652,779,64,0.138325830370352,1
653,776,64,0.199925235742243,1
653,777,64,0.209978204318078,1
653,778,64,0.168797035037308,1
653,779,64,0.124920093962434,1
654,776,64,0.151589054919673,1
654,777,64,0.19499600481589,1
654,778,64,0.233157079182655,1
654,779,64,0.196778786830147,1
655,776,64,0.140432641082854,1
655,777,64,0.193185994686843,1
655,778,64,0.278177518640659,1
655,779,64,0.237766780173674,1
655,780,64,0.114427235878101,1
656,776,64,0.182098722831829,1
656,777,64,0.175543471757991,1
656,778,64,0.203266921543176,1
656,779,64,0.164797717247616,1
657,777,64,0.126591996780864,1
657,778,64,0.115977389453147,1
658,780,64,0.120651297919009,1
659,779,64,0.11850283243055,1
659,780,64,0.159648152930428,1
659,781,64,0.147139613524704,1
660,780,64,0.12976595645254,1
660,781,64,0.124515876581833,1
662,783,64,0.130090385564238,1
662,784,64,0.133426018055914,1
667,797,64,0.134174956088776,1
667,798,64,0.129842305876496,1
668,798,64,0.114630410374797,1
642,786,65,0.13458228256207,1
642,787,65,0.140141269634745,1
643,785,65,0.121435507666316,1
643,786,65,0.166476615524604,1
643,787,65,0.158078308434997,1
644,781,65,0.136429448704163,1
644,782,65,0.124074255873995,1
644,783,65,0.124919481565389,1
644,784,65,0.120485797617474,1
644,785,65,0.131271581696263,1
644,786,65,0.13984843785522,1
644,787,65,0.117174920098673,1
645,780,65,0.183834962670631,1
645,781,65,0.159334546758823,1
645,782,65,0.148086650224905,1
645,783,65,0.182976087591244,1
645,784,65,0.180476235744221,1
645,785,65,0.134598935050959,1
646,779,65,0.17316764208954,1
646,780,65,0.174601510887148,1
646,781,65,0.170960928220565,1
646,782,65,0.187890715203435,1
646,783,65,0.270280493863358,1
646,784,65,0.253034286037847,1
646,785,65,0.134091575875664,1
647,778,65,0.178109992444905,1
647,779,65,0.155686733096358,1
647,780,65,0.1572091050439,1
647,781,65,0.158656222816048,1
647,782,65,0.166851956029138,1
647,783,65,0.205933722246284,1
647,784,65,0.1713968960326,1
648,778,65,0.16442137570945,1
648,779,65,0.146176042104275,1
648,780,65,0.142806892651226,1
648,781,65,0.134974652415214,1
648,782,65,0.118446621447897,1
649,777,65,0.167645763922446,1
649,778,65,0.146865989814047,1
649,779,65,0.145599717600169,1
649,780,65,0.134191761676928,1
650,777,65,0.157356845831117,1
650,778,65,0.179172112682187,1
650,779,65,0.172203199181008,1
650,780,65,0.124331721724145,1
651,776,65,0.151788189951243,1
651,777,65,0.198358370793975,1
651,778,65,0.232628651193623,1
651,779,65,0.192792093841085,1
652,776,65,0.207704515410689,1
652,777,65,0.225699731930259,1
652,778,65,0.190710579837308,1
652,779,65,0.132341121359288,1
653,776,65,0.240259047718826,1
653,777,65,0.246820882060903,1
653,778,65,0.19557436671786,1
653,779,65,0.136696500923448,1
654,776,65,0.160212264824225,1
654,777,65,0.198680750730943,1
654,778,65,0.251238855669228,1
654,779,65,0.221468492313334,1
654,780,65,0.120044600876821,1
655,776,65,0.125497890574823,1
655,777,65,0.162972043886445,1
655,778,65,0.25222841863349,1
655,779,65,0.244659167597903,1
655,780,65,0.135868787432181,1
656,777,65,0.14418225397726,1
656,778,65,0.16804402220872,1
656,779,65,0.158215285166453,1
658,781,65,0.113991303396665,1
659,780,65,0.130291098695886,1
659,781,65,0.141265277304217,1
660,781,65,0.116510645957346,1
662,783,65,0.146363553368848,1
662,784,65,0.124697369867748,1
667,797,65,0.140110873542931,1
667,798,65,0.147832752765232,1
668,798,65,0.123358257736059,1
643,785,66,0.122234073413593,1
643,786,66,0.141800170792825,1
643,787,66,0.124845287307958,1
643,807,66,0.120147460026725,1
644,782,66,0.116575819135222,1
644,783,66,0.12066936363185,1
644,784,66,0.114292814726623,1
644,785,66,0.12842870506572,1
644,786,66,0.135239879220228,1
645,781,66,0.162211705847045,1
645,782,66,0.152198189773177,1
645,783,66,0.179268471001916,1
645,784,66,0.176359514374796,1
645,785,66,0.132913936357249,1
646,780,66,0.1616172096383,1
646,781,66,0.164714125050911,1
646,782,66,0.182918451607773,1
646,783,66,0.262049689142549,1
646,784,66,0.265815153698939,1
646,785,66,0.146781655674768,1
647,779,66,0.139559822193815,1
647,780,66,0.127059809239262,1
647,781,66,0.13313211458156,1
647,782,66,0.148912667847431,1
647,783,66,0.201492030029313,1
647,784,66,0.194154477060502,1
648,778,66,0.184176114932416,1
648,779,66,0.157809159933518,1
648,780,66,0.135953722191639,1
648,781,66,0.116898799692369,1
649,778,66,0.168154842520215,1
649,779,66,0.176711124493819,1
649,780,66,0.158818990884611,1
649,781,66,0.119266880182822,1
650,777,66,0.150324031053618,1
650,778,66,0.170199542040068,1
650,779,66,0.173474994745162,1
650,780,66,0.142897409645291,1
651,777,66,0.189737186510419,1
651,778,66,0.190554713012373,1
651,779,66,0.153533709960657,1
652,777,66,0.232022825639538,1
652,778,66,0.178998368574271,1
652,779,66,0.115669082871358,1
653,777,66,0.239518942335658,1
653,778,66,0.205680024993337,1
653,779,66,0.141971418205094,1
654,777,66,0.187309997928214,1
654,778,66,0.239066357365332,1
654,779,66,0.213812021806234,1
654,780,66,0.132838646851257,1
655,777,66,0.135633509198062,1
655,778,66,0.199656958728867,1
655,779,66,0.209134862925285,1
655,780,66,0.141925994831934,1
656,778,66,0.123677540357201,1
656,779,66,0.133030456672014,1
658,827,66,0.114440261092183,1
659,781,66,0.117878411204642,1
665,790,66,0.13185231074835,1
667,797,66,0.12181931573769,1
667,798,66,0.139714299348532,1
668,798,66,0.117588935832001,1
642,806,67,0.117397856176952,1
642,807,67,0.123649994267022,1
643,785,67,0.124994853509445,1
643,786,67,0.126173753152549,1
643,806,67,0.140935018643721,1
643,807,67,0.141902605975544,1
644,783,67,0.121194576536393,1
644,784,67,0.120816656898149,1
644,785,67,0.133367793229131,1
644,786,67,0.13120438289739,1
645,782,67,0.161910547823075,1
645,783,67,0.176883502485249,1
645,784,67,0.169907546418047,1
645,785,67,0.131486851034607,1
646,781,67,0.163899377889395,1
646,782,67,0.181769053014647,1
646,783,67,0.231030742425897,1
646,784,67,0.235465297861915,1
646,785,67,0.145863837379755,1
647,780,67,0.115985633259529,1
647,781,67,0.119845041878065,1
647,782,67,0.138571460469912,1
647,783,67,0.184488696516657,1
647,784,67,0.193704106141033,1
647,785,67,0.122719822039303,1
648,779,67,0.16861372811399,1
648,780,67,0.133376943854214,1
648,783,67,0.12028340039395,1
648,784,67,0.119683298396867,1
649,778,67,0.189656432538483,1
649,779,67,0.195486652617964,1
649,780,67,0.175688621634631,1
649,781,67,0.129962076606348,1
650,778,67,0.154155693375249,1
650,779,67,0.157447480593844,1
650,780,67,0.152509793877518,1
650,781,67,0.138954326391986,1
650,782,67,0.115783236036005,1
651,778,67,0.1465940030878,1
651,779,67,0.113994106290835,1
652,777,67,0.220719695602867,1
652,778,67,0.167072831155822,1
653,777,67,0.20350215266983,1
653,778,67,0.198907102100437,1
653,779,67,0.141694650071146,1
654,778,67,0.204469457356862,1
654,779,67,0.184979332541865,1
654,780,67,0.131574046952387,1
655,778,67,0.152971199720672,1
655,779,67,0.16271396563925,1
655,780,67,0.131847081819731,1
657,827,67,0.116750540723037,1
658,827,67,0.118613275882325,1
658,828,67,0.163530184909048,1
665,789,67,0.117062050612449,1
665,790,67,0.134641484868752,1
642,794,68,0.115521153654282,1
642,806,68,0.125959579062767,1
642,807,68,0.133352919047046,1
642,809,68,0.11393919076347,1
643,793,68,0.115383446757117,1
643,794,68,0.118667449467116,1
643,806,68,0.146022530652592,1
643,807,68,0.14611555611917,1
644,784,68,0.117603020964047,1
644,785,68,0.124169318738436,1
644,786,68,0.115704872767919,1
645,782,68,0.163723455061221,1
645,783,68,0.163582191550447,1
645,784,68,0.151267958661127,1
645,785,68,0.121352245221866,1
646,781,68,0.155046754630122,1
646,782,68,0.172381241845109,1
646,783,68,0.187775431459628,1
646,784,68,0.18196078039734,1
646,785,68,0.130678027636819,1
647,782,68,0.126905932704725,1
647,783,68,0.157454652705396,1
647,784,68,0.167673981294002,1
647,785,68,0.127017106322208,1
648,780,68,0.127555780184886,1
648,783,68,0.122402317724966,1
648,784,68,0.123352699055184,1
649,779,68,0.194102764840759,1
649,780,68,0.17086956329213,1
649,781,68,0.137790406922762,1
649,782,68,0.114919873970572,1
650,778,68,0.14629986407612,1
650,779,68,0.145194086995617,1
650,780,68,0.153619433770155,1
650,781,68,0.156332717764385,1
650,782,68,0.137365238497087,1
651,781,68,0.125329222296265,1
651,782,68,0.115686854162543,1
652,778,68,0.163140299974684,1
652,779,68,0.117176769066676,1
653,778,68,0.181825369989097,1
653,779,68,0.145888933881752,1
653,780,68,0.113870602294379,1
654,778,68,0.16252975189723,1
654,779,68,0.155287014478668,1
654,780,68,0.128958086980919,1
655,779,68,0.125754320060742,1
655,780,68,0.11947338753267,1
657,827,68,0.116640815660104,1
657,828,68,0.156410209544368,1
658,828,68,0.160687320055372,1
665,790,68,0.114870599562146,1
641,808,69,0.118380753434911,1
641,809,69,0.117380084885768,1
642,793,69,0.11984298092647,1
642,794,69,0.11855798349524,1
642,806,69,0.126486099199465,1
642,807,69,0.142503838551788,1
642,808,69,0.127578014908382,1
642,809,69,0.121856189105946,1
643,793,69,0.118953309341815,1
643,794,69,0.114183631399537,1
643,806,69,0.131362887740367,1
643,807,69,0.140304661877219,1
643,808,69,0.115579449142263,1
645,783,69,0.147344224799084,1
645,784,69,0.129883913544988,1
646,782,69,0.1635344599115,1
646,783,69,0.150695532299752,1
646,784,69,0.137196546664796,1
646,785,69,0.114670204405886,1
647,782,69,0.125431516156589,1
647,783,69,0.134595166453757,1
647,784,69,0.138402674422691,1
647,785,69,0.122539223795224,1
648,780,69,0.126866433095293,1
648,781,69,0.113856623154129,1
648,782,69,0.120437500688947,1
648,783,69,0.125432705620081,1
648,784,69,0.117860027516412,1
649,779,69,0.186502340440185,1
649,780,69,0.155011035394759,1
649,781,69,0.14809661345376,1
649,782,69,0.139744930977671,1
649,783,69,0.114419039179184,1
650,779,69,0.143288825572269,1
650,780,69,0.149980405649919,1
650,781,69,0.162281165804239,1
650,782,69,0.149863037400783,1
651,779,69,0.117538566175012,1
651,780,69,0.130451746928523,1
651,781,69,0.133380889104411,1
651,782,69,0.120801264533948,1
652,779,69,0.135053863617671,1
652,780,69,0.129923495592484,1
652,781,69,0.117243249476707,1
653,779,69,0.143604045174552,1
653,780,69,0.130467527929309,1
653,781,69,0.118745883396399,1
654,779,69,0.131407003881372,1
654,780,69,0.125926368299917,1
657,828,69,0.1413591389283,1
658,782,69,0.117528273193902,1
658,828,69,0.142653310538345,1
659,783,69,0.115466991846357,1
663,828,69,0.115795660629908,1
667,827,69,0.124793504427018,1
668,826,69,0.117636396603024,1
668,827,69,0.153729700568936,1
641,807,70,0.116350209708302,1
641,808,70,0.126432184705732,1
642,793,70,0.119723905031727,1
642,806,70,0.119121683198717,1
642,807,70,0.136094125991176,1
642,808,70,0.131235944898963,1
642,809,70,0.12271085984408,1
643,807,70,0.122196104796774,1
643,808,70,0.1142771161639,1
645,784,70,0.11450731856866,1
646,783,70,0.131953026508595,1
646,784,70,0.115735292413465,1
647,782,70,0.128815634006653,1
647,783,70,0.125100845305774,1
647,784,70,0.119965001037777,1
647,785,70,0.114296006257379,1
648,781,70,0.127786218126971,1
648,782,70,0.136251912445312,1
648,783,70,0.129502602169261,1
649,780,70,0.145701540385842,1
649,781,70,0.151490859408807,1
649,782,70,0.154618877525207,1
649,783,70,0.129024802928275,1
650,780,70,0.147896972016941,1
650,781,70,0.157959774276102,1
650,782,70,0.150821615429918,1
650,783,70,0.11964711986372,1
651,780,70,0.147214361294849,1
651,781,70,0.141433886698444,1
651,782,70,0.125181775930705,1
652,780,70,0.150524838400197,1
652,781,70,0.131619517433012,1
653,780,70,0.139088547336737,1
653,781,70,0.125692668165877,1
654,780,70,0.120118406497665,1
654,781,70,0.114664351303355,1
657,782,70,0.124230711542243,1
658,782,70,0.119997399196855,1
658,783,70,0.121587994530635,1
659,783,70,0.117175320512126,1
668,826,70,0.120771810591435,1
