x,y,z,signal,mito.p
336,1003,20,0.171720618532322,1
337,1003,20,0.158607796341992,1
335,1003,21,0.14183342866314,1
336,1002,21,0.138402650868958,1
336,1003,21,0.183105362252166,1
336,1004,21,0.151293467353443,1
337,1002,21,0.134931231109318,1
337,1003,21,0.166196914950958,1
337,1004,21,0.139002929519036,1
338,1003,21,0.151352316354138,1
339,1003,21,0.180583923409292,1
339,1004,21,0.196157557134996,1
334,1003,22,0.150047580895059,1
335,1002,22,0.120806187264045,1
335,1003,22,0.140744315848393,1
335,1004,22,0.132692001312602,1
336,1002,22,0.15413563737201,1
336,1003,22,0.187256377856137,1
336,1004,22,0.143249820591219,1
337,1002,22,0.152223710242359,1
337,1003,22,0.179447067178731,1
337,1004,22,0.145197372741303,1
337,1005,22,0.118143779332052,1
337,1010,22,0.128944131394403,1
338,1002,22,0.146704175671651,1
338,1003,22,0.177075265198541,1
338,1004,22,0.17189564631866,1
339,1002,22,0.165365915714005,1
339,1003,22,0.21442309984267,1
339,1004,22,0.220297989575872,1
339,1005,22,0.182406051933719,1
340,1003,22,0.194192999190034,1
340,1004,22,0.204352371752517,1
334,1003,23,0.160778967628598,1
335,1002,23,0.133034354814746,1
335,1003,23,0.146269903728358,1
335,1004,23,0.144000065856236,1
336,1002,23,0.153985976955593,1
336,1003,23,0.173430325091443,1
336,1004,23,0.140191686399199,1
336,1005,23,0.124623281602114,1
336,1010,23,0.117612513118251,1
337,1002,23,0.16246978409424,1
337,1003,23,0.186018723427268,1
337,1004,23,0.159097195796243,1
337,1005,23,0.135972989144838,1
337,1009,23,0.148253469535461,1
337,1010,23,0.145299737262825,1
337,1011,23,0.132208749382539,1
338,1002,23,0.168389979431939,1
338,1003,23,0.207890095269195,1
338,1004,23,0.199033208784336,1
338,1005,23,0.164429148441181,1
338,1009,23,0.144783062586319,1
338,1010,23,0.133341236395717,1
339,1002,23,0.18365887496633,1
339,1003,23,0.241545976556122,1
339,1004,23,0.238505401671693,1
339,1005,23,0.186561848945391,1
340,1003,23,0.208633851480903,1
340,1004,23,0.218362367391308,1
340,1005,23,0.178498252171725,1
340,1012,23,0.186814733594566,1
340,1013,23,0.199048895570193,1
341,1004,23,0.153134615516879,1
341,1012,23,0.172724278405495,1
341,1013,23,0.178857434815752,1
334,1003,24,0.192096811210898,1
334,1004,24,0.185011471609885,1
335,1002,24,0.162162219455025,1
335,1003,24,0.178063791798571,1
335,1004,24,0.179252266033944,1
335,1005,24,0.177334909768948,1
335,1006,24,0.16147392050653,1
336,1001,24,0.124412934993865,1
336,1002,24,0.156831173628789,1
336,1003,24,0.162482479556067,1
336,1004,24,0.152081186606895,1
336,1005,24,0.152903200094893,1
336,1006,24,0.152087051486292,1
336,1010,24,0.123474648505294,1
336,1011,24,0.127524324175108,1
337,1001,24,0.129110856490028,1
337,1002,24,0.165543263542996,1
337,1003,24,0.183381694642063,1
337,1004,24,0.174310033447242,1
337,1005,24,0.161306111939208,1
337,1006,24,0.1495334029142,1
337,1008,24,0.116915805487247,1
337,1009,24,0.149393858825899,1
337,1010,24,0.151527956537522,1
337,1011,24,0.133415748628537,1
337,1012,24,0.126542475058246,1
338,1002,24,0.186806301358325,1
338,1003,24,0.238051662568474,1
338,1004,24,0.230925928316194,1
338,1005,24,0.190066985873131,1
338,1008,24,0.122807171056344,1
338,1009,24,0.144469362199783,1
338,1010,24,0.133601328487043,1
338,1011,24,0.120922825347472,1
339,1002,24,0.195095342682783,1
339,1003,24,0.260094046285346,1
339,1004,24,0.251799505164344,1
339,1005,24,0.193854084532839,1
339,1009,24,0.113853313854711,1
339,1012,24,0.184123813869361,1
339,1013,24,0.192509284174746,1
340,1002,24,0.165002752489182,1
340,1003,24,0.21452657138962,1
340,1004,24,0.221452946849872,1
340,1005,24,0.178333599804561,1
340,1011,24,0.167379182777812,1
340,1012,24,0.253611116947203,1
340,1013,24,0.245239272476079,1
340,1014,24,0.165668074771607,1
341,1003,24,0.139881742833,1
341,1004,24,0.154219194238116,1
341,1011,24,0.170380269829675,1
341,1012,24,0.236214235894777,1
341,1013,24,0.222375805643644,1
341,1014,24,0.151401673200629,1
342,1012,24,0.190666510803767,1
342,1013,24,0.186284150439009,1
343,1012,24,0.182898360273936,1
343,1013,24,0.193975539354566,1
333,1003,25,0.202084712600653,1
333,1004,25,0.171133718402315,1
334,1002,25,0.191961718778044,1
334,1003,25,0.235764383157423,1
334,1004,25,0.222971220447956,1
334,1005,25,0.168843636097094,1
334,1006,25,0.139290779684133,1
335,1001,25,0.164251623959196,1
335,1002,25,0.207235466381334,1
335,1003,25,0.244784544116094,1
335,1004,25,0.239465216271785,1
335,1005,25,0.201525546990686,1
335,1006,25,0.192517692857255,1
335,1007,25,0.147450181264815,1
336,1001,25,0.165084260180559,1
336,1002,25,0.18344626719976,1
336,1003,25,0.196430097373957,1
336,1004,25,0.199483838794863,1
336,1005,25,0.191127916646921,1
336,1006,25,0.193301207769453,1
336,1007,25,0.142035908324728,1
336,1010,25,0.121436190724559,1
336,1011,25,0.126133511600543,1
337,1001,25,0.158759470602539,1
337,1002,25,0.183945359014941,1
337,1003,25,0.208714004832661,1
337,1004,25,0.214936335674229,1
337,1005,25,0.197133906455315,1
337,1006,25,0.173418925084904,1
337,1007,25,0.126716407596022,1
337,1009,25,0.130393698754733,1
337,1010,25,0.14419380708306,1
337,1011,25,0.134351444206531,1
337,1012,25,0.134722085741428,1
338,1001,25,0.150989883295024,1
338,1002,25,0.214461515980407,1
338,1003,25,0.276298896488789,1
338,1004,25,0.273008487163546,2
338,1005,25,0.226495424122169,1
338,1006,25,0.185671706286086,1
338,1008,25,0.117724829091761,1
338,1009,25,0.12886037432157,1
338,1010,25,0.130592327381054,1
338,1011,25,0.125341399575976,1
339,1002,25,0.217969184934392,1
339,1003,25,0.281271796035228,1
339,1004,25,0.265300104229977,1
339,1005,25,0.207046895198798,1
339,1006,25,0.179652938577801,1
339,1009,25,0.115432403190155,1
339,1012,25,0.186193503899415,1
339,1013,25,0.184254749068426,1
340,1002,25,0.181803818323843,1
340,1003,25,0.220244004420941,1
340,1004,25,0.216967586012814,1
340,1005,25,0.175999424912067,1
340,1007,25,0.185592848389617,1
340,1011,25,0.174333068997645,1
340,1012,25,0.279479592527965,1
340,1013,25,0.253676831860927,1
340,1014,25,0.163021141641878,1
341,1003,25,0.14803897747029,1
341,1004,25,0.158586150461809,1
341,1007,25,0.192412584325895,1
341,1008,25,0.177257641749424,1
341,1011,25,0.188460962844552,1
341,1012,25,0.270281930641041,1
341,1013,25,0.239531637797485,1
341,1014,25,0.162598399250652,1
342,1011,25,0.190729151955398,1
342,1012,25,0.21284657786407,1
342,1013,25,0.196070361217215,1
343,1010,25,0.208415202181942,1
343,1011,25,0.209089804634979,1
343,1012,25,0.216282879008527,1
343,1013,25,0.221592125855318,1
343,1014,25,0.188158191389905,1
344,1012,25,0.205858609393285,1
344,1013,25,0.234597342818641,1
333,1003,26,0.206134258724938,1
333,1004,26,0.184480947338659,1
334,1002,26,0.194572072961172,1
334,1003,26,0.259302146244371,1
334,1004,26,0.242668311910586,1
334,1005,26,0.161679945004861,1
334,1006,26,0.131598578164804,1
334,1007,26,0.114411348885517,1
335,1001,26,0.197799110969077,1
335,1002,26,0.223803491586465,1
335,1003,26,0.281476713508132,1
335,1004,26,0.268117790143592,1
335,1005,26,0.207624197182804,1
335,1006,26,0.204575307830796,1
335,1007,26,0.148261148052262,1
336,1001,26,0.190837157595857,1
336,1002,26,0.192629455318051,1
336,1003,26,0.223826291599542,1
336,1004,26,0.236730651480225,1
336,1005,26,0.218594324549142,1
336,1006,26,0.216949967820891,1
336,1007,26,0.147394688671003,1
336,1011,26,0.119206547296978,1
337,1001,26,0.175473481841815,1
337,1002,26,0.190042478214446,1
337,1003,26,0.230919168394961,1
337,1004,26,0.260944618674021,2
337,1005,26,0.235150219582027,1
337,1006,26,0.189328376151978,1
337,1007,26,0.126916755644817,1
337,1010,26,0.130260726157805,1
337,1011,26,0.133524931955622,1
337,1012,26,0.146420576955273,1
338,1001,26,0.173800530882288,1
338,1002,26,0.234801530125836,1
338,1003,26,0.306083415637926,2
338,1004,26,0.321215157787867,2
338,1005,26,0.270613237442634,2
338,1006,26,0.207177218000818,1
338,1007,26,0.141574690911434,1
338,1009,26,0.115473139370544,1
338,1010,26,0.126504541772026,1
338,1011,26,0.134951899509602,1
338,1012,26,0.156672032835034,1
339,1001,26,0.174231246211971,1
339,1002,26,0.243669086451526,1
339,1003,26,0.30019220316809,2
339,1004,26,0.282089463859577,2
339,1005,26,0.228431258290325,1
339,1006,26,0.205690765495365,1
339,1007,26,0.181512234892141,1
339,1011,26,0.137097868302414,1
339,1012,26,0.184862882888298,1
339,1013,26,0.175028905140546,1
340,1002,26,0.197448972958337,1
340,1003,26,0.224322191883968,1
340,1004,26,0.210135825896085,1
340,1005,26,0.180163230192795,1
340,1006,26,0.203627835386544,1
340,1007,26,0.244840201586033,1
340,1008,26,0.214523603619323,1
340,1011,26,0.170852993241304,1
340,1012,26,0.265684689574524,1
340,1013,26,0.235725590159967,1
340,1014,26,0.162673806525307,1
341,1003,26,0.152559610021793,1
341,1004,26,0.157562199048071,1
341,1006,26,0.198043575158877,1
341,1007,26,0.257655858110054,1
341,1008,26,0.236678644838826,1
341,1009,26,0.157471693830872,1
341,1011,26,0.196303578499738,1
341,1012,26,0.268401518405499,1
341,1013,26,0.234186023987686,1
341,1014,26,0.177760643484204,1
342,1007,26,0.188303812341195,1
342,1008,26,0.189642500505699,1
342,1010,26,0.198933317404729,1
342,1011,26,0.221574813861918,1
342,1012,26,0.22231037337471,1
342,1013,26,0.198235326095303,1
342,1014,26,0.180125226245378,1
343,1009,26,0.219809296733597,1
343,1010,26,0.253931541924372,1
343,1011,26,0.256531779779384,1
343,1012,26,0.23854822235741,1
343,1013,26,0.226718242431785,1
343,1014,26,0.194293797388343,1
344,1010,26,0.208749665183692,1
344,1011,26,0.214231631551035,1
344,1012,26,0.231107433378974,1
344,1013,26,0.249200515657155,1
344,1014,26,0.20147170315815,1
345,1012,26,0.147990244797711,1
345,1013,26,0.160530746618461,1
333,1001,27,0.180396105946196,1
333,1002,27,0.193536945301355,1
333,1003,27,0.208270228958297,1
333,1004,27,0.183058490324456,1
334,1000,27,0.167403466676038,1
334,1001,27,0.193605392448052,1
334,1002,27,0.203934057463005,1
334,1003,27,0.254091542429364,1
334,1004,27,0.231408614956677,1
334,1005,27,0.148700554709244,1
334,1006,27,0.122055065046459,1
335,1000,27,0.18754455777349,1
335,1001,27,0.216515966745521,1
335,1002,27,0.220417854520654,1
335,1003,27,0.276435437476193,1
335,1004,27,0.255412883269869,1
335,1005,27,0.187963284253322,1
335,1006,27,0.187273018568161,1
335,1007,27,0.138535753011415,1
336,1002,27,0.188125487032304,1
336,1003,27,0.23298235759484,1
336,1004,27,0.250738857035344,1
336,1005,27,0.218786805651275,1
336,1006,27,0.209344020070041,1
336,1007,27,0.146560486126428,1
336,1008,27,0.114797641875672,1
336,1010,27,0.114443311300544,1
336,1011,27,0.115982924580289,1
336,1012,27,0.119359010607565,1
337,1002,27,0.187859164978728,1
337,1003,27,0.241412662430073,2
337,1004,27,0.299567723057851,2
337,1005,27,0.262674616773706,1
337,1006,27,0.194275719898636,1
337,1007,27,0.136184431001649,1
337,1009,27,0.119652537222199,1
337,1010,27,0.13095135692582,1
337,1011,27,0.140221081457381,1
337,1012,27,0.153063365476013,1
337,1013,27,0.13856643174802,1
338,1001,27,0.197655927829102,1
338,1002,27,0.243306241202092,2
338,1003,27,0.309147756238465,2
338,1004,27,0.35392542737541,2
338,1005,27,0.300175974646385,2
338,1006,27,0.211207614940566,1
338,1007,27,0.149568285992058,1
338,1009,27,0.123559335950561,1
338,1010,27,0.136485259273364,1
338,1011,27,0.156688014042547,1
338,1012,27,0.175686843327826,1
338,1013,27,0.157260016436737,1
339,1001,27,0.209357539912506,1
339,1002,27,0.266823724525343,2
339,1003,27,0.305261861447712,2
339,1004,27,0.2975509111573,2
339,1005,27,0.251856410982107,2
339,1006,27,0.2206330885284,1
339,1007,27,0.192053130813944,1
339,1008,27,0.155249281399175,1
339,1010,27,0.130329126197036,1
339,1011,27,0.158008118312094,1
339,1012,27,0.191175883823193,1
339,1013,27,0.173615363214101,1
340,1002,27,0.218402031876868,1
340,1003,27,0.232797437240844,2
340,1004,27,0.217448129263638,2
340,1005,27,0.200979642132125,1
340,1006,27,0.234855421065837,1
340,1007,27,0.27719827221124,1
340,1008,27,0.223334489664575,1
340,1009,27,0.138288438819981,1
340,1011,27,0.167163265711823,1
340,1012,27,0.227844110846126,1
340,1013,27,0.20591815322909,1
340,1014,27,0.157083822740639,1
341,1003,27,0.170513737054986,1
341,1004,27,0.166629761893434,1
341,1005,27,0.167401017087856,1
341,1006,27,0.223805422992532,1
341,1007,27,0.308520002159406,3
341,1008,27,0.268427757263524,1
341,1009,27,0.16647203432363,1
341,1010,27,0.149601119895188,1
341,1011,27,0.190267051277135,1
341,1012,27,0.234793945823966,1
341,1013,27,0.21673833753422,1
341,1014,27,0.184953706080886,1
342,1006,27,0.154850281170327,1
342,1007,27,0.210911780060145,1
342,1008,27,0.218205687962601,1
342,1009,27,0.201406906839995,1
342,1010,27,0.227133329859943,1
342,1011,27,0.244610175834266,1
342,1012,27,0.226816791248639,1
342,1013,27,0.211170494258118,1
342,1014,27,0.202182413483136,1
343,1007,27,0.136453709048656,1
343,1008,27,0.181566090501543,1
343,1009,27,0.234808148724674,1
343,1010,27,0.294820491822662,1
343,1011,27,0.302617107038242,4
343,1012,27,0.255197578600925,1
343,1013,27,0.232783093017741,1
343,1014,27,0.209266858042314,1
344,1009,27,0.17485371247808,1
344,1010,27,0.220433988827428,1
344,1011,27,0.244880502022371,1
344,1012,27,0.243501760735721,1
344,1013,27,0.241442410794242,1
344,1014,27,0.202546766171451,1
345,1011,27,0.13627621989727,1
345,1012,27,0.15059817294639,1
345,1013,27,0.161032299798691,1
332,1001,28,0.225112631593526,1
332,1002,28,0.213202922283329,1
333,1000,28,0.191181513165265,1
333,1001,28,0.233935200290107,1
333,1002,28,0.232073866577904,1
333,1003,28,0.204910901411707,1
333,1004,28,0.16973846594917,1
334,999,28,0.195108603434191,1
334,1000,28,0.232458734567241,1
334,1001,28,0.240218064224245,1
334,1002,28,0.234366469132504,1
334,1003,28,0.243620377332679,1
334,1004,28,0.209086153806439,1
334,1005,28,0.1507239616549,1
334,1006,28,0.126365233221051,1
335,999,28,0.227926054281555,1
335,1000,28,0.234660325499393,1
335,1001,28,0.221854985510215,1
335,1002,28,0.219087657476723,1
335,1003,28,0.252578003131516,1
335,1004,28,0.223588210471255,1
335,1005,28,0.173140154883692,1
335,1006,28,0.163817587553228,1
335,1007,28,0.137570379730449,1
336,998,28,0.213606703919878,1
336,999,28,0.237852916173491,1
336,1000,28,0.201287277432538,1
336,1001,28,0.180222326507681,1
336,1002,28,0.185079777434186,1
336,1003,28,0.228898540789742,1
336,1004,28,0.244167106571878,2
336,1005,28,0.212466043761516,1
336,1006,28,0.19378281093824,1
336,1007,28,0.159850597261417,1
336,1008,28,0.131817510108555,1
336,1010,28,0.118178744847974,1
336,1011,28,0.126994588953921,1
336,1012,28,0.126794488219318,1
337,998,28,0.191511701164562,1
337,999,28,0.211521915947281,1
337,1002,28,0.190931690501317,1
337,1003,28,0.245745442187882,2
337,1004,28,0.318108420468797,2
337,1005,28,0.277193090390087,2
337,1006,28,0.201563444946306,1
337,1007,28,0.161714804528987,1
337,1010,28,0.126294842891422,1
337,1011,28,0.144945500902626,1
337,1012,28,0.153241255040852,1
337,1013,28,0.128574278909545,1
338,999,28,0.186639658700763,1
338,1000,28,0.191776692432252,1
338,1001,28,0.215986667268386,1
338,1002,28,0.255896841811908,2
338,1003,28,0.307963804319736,2
338,1004,28,0.372700460871173,2
338,1005,28,0.312088533958217,2
338,1006,28,0.208008335006433,2
338,1007,28,0.161346636136005,1
338,1010,28,0.138585333618365,1
338,1011,28,0.170154530857227,1
338,1012,28,0.179988331951985,1
338,1013,28,0.153593171358397,1
339,1000,28,0.198053514833999,1
339,1001,28,0.238023468750651,1
339,1002,28,0.288052939180777,2
339,1003,28,0.308807169266261,2
339,1004,28,0.319454068761259,2
339,1005,28,0.281253306355202,2
339,1006,28,0.228386129338821,1
339,1007,28,0.194113411127857,1
339,1008,28,0.154414207366496,1
339,1010,28,0.143318020423724,1
339,1011,28,0.178291191309163,1
339,1012,28,0.191116917053835,1
339,1013,28,0.167264593869114,1
340,1001,28,0.201391691128788,1
340,1002,28,0.237390721280298,1
340,1003,28,0.24240041175693,2
340,1004,28,0.24299589722244,2
340,1005,28,0.250043103330507,2
340,1006,28,0.268011374380078,1
340,1007,28,0.285091528391339,3
340,1008,28,0.208418287720902,1
340,1009,28,0.138247160903744,1
340,1011,28,0.160751739513808,1
340,1012,28,0.186009478587255,1
340,1013,28,0.173939309474282,1
341,1002,28,0.202619900510918,1
341,1003,28,0.195720388082603,1
341,1004,28,0.182422115579296,1
341,1005,28,0.193000685696261,1
341,1006,28,0.251049036138869,3
341,1007,28,0.337556548978715,3
341,1008,28,0.272594671636944,3
341,1009,28,0.170711176217815,1
341,1010,28,0.152489431675757,1
341,1011,28,0.172839102851518,1
341,1012,28,0.19298453961262,1
341,1013,28,0.193770998741383,1
342,1006,28,0.168453668724666,1
342,1007,28,0.259484734778848,3
342,1008,28,0.263240047676523,1
342,1009,28,0.223941728442611,1
342,1010,28,0.240519528446738,1
342,1011,28,0.251959599884266,4
342,1012,28,0.228016500614423,1
342,1013,28,0.222662854981836,1
342,1014,28,0.210830519682959,1
343,1007,28,0.160164957152463,1
343,1008,28,0.20608262894326,1
343,1009,28,0.244710373412396,1
343,1010,28,0.317682686753541,4
343,1011,28,0.333682454607953,4
343,1012,28,0.268357284495831,4
343,1013,28,0.239661536632319,1
343,1014,28,0.223862069719237,1
343,1015,28,0.183517234595835,1
344,1009,28,0.166241973241264,1
344,1010,28,0.229812637595017,1
344,1011,28,0.263730200850214,4
344,1012,28,0.237969766240511,1
344,1013,28,0.225572518220932,1
344,1014,28,0.219740331404785,1
344,1019,28,0.121569010222226,1
345,1011,28,0.13658612813287,1
345,1012,28,0.146329117811907,1
345,1013,28,0.158436454714793,1
345,1019,28,0.116978905936662,1
346,1019,28,0.121403392152028,1
329,1000,29,0.156733084109719,1
330,1000,29,0.169247888808293,1
331,1001,29,0.176755099312429,1
332,1000,29,0.184118149196691,1
332,1001,29,0.231344855002752,1
332,1002,29,0.207208403142671,1
332,1003,29,0.140025185064032,1
333,999,29,0.188217299481658,1
333,1000,29,0.237767321909522,1
333,1001,29,0.276969306377437,1
333,1002,29,0.260930274450918,1
333,1003,29,0.194980636005423,1
333,1004,29,0.147542441235086,1
333,1005,29,0.127849295022654,1
333,1006,29,0.125448262860409,1
333,1007,29,0.135217338298209,1
334,998,29,0.163643925883376,1
334,999,29,0.249796589965978,1
334,1000,29,0.291103830600048,5
334,1001,29,0.286595033799135,5
334,1002,29,0.270986257904515,1
334,1003,29,0.230168534493358,1
334,1004,29,0.184041175598823,1
334,1005,29,0.15856839094749,1
334,1006,29,0.142704316146112,1
334,1007,29,0.129265074553687,1
335,998,29,0.221823352847444,1
335,999,29,0.285167606947371,6
335,1000,29,0.261790762960983,1
335,1001,29,0.225387739189331,1
335,1002,29,0.225224511822984,1
335,1003,29,0.227004373174409,1
335,1004,29,0.196814894702097,1
335,1005,29,0.167368760251173,1
335,1006,29,0.154415267284459,1
335,1007,29,0.140214286205549,1
335,1008,29,0.126484568206852,1
336,997,29,0.183515998024878,1
336,998,29,0.302718647179125,6
336,999,29,0.316278083468587,6
336,1000,29,0.214684404951221,1
336,1001,29,0.170383272930571,1
336,1002,29,0.187084070525905,1
336,1003,29,0.222033970323616,1
336,1004,29,0.232602930517714,2
336,1005,29,0.203914437203818,1
336,1006,29,0.185903734105117,1
336,1007,29,0.173422387483584,1
336,1008,29,0.14722934146873,1
336,1011,29,0.130657818534319,1
336,1012,29,0.125802416782543,1
337,997,29,0.18343125169528,1
337,998,29,0.286004683047314,6
337,999,29,0.298448473242347,6
337,1000,29,0.206719145010815,1
337,1001,29,0.183218585044379,1
337,1002,29,0.208263045069879,1
337,1003,29,0.256358165216997,2
337,1004,29,0.314989081902829,2
337,1005,29,0.271960251851582,2
337,1006,29,0.209569193752909,1
337,1007,29,0.188510614112699,1
337,1008,29,0.152034550216511,1
337,1009,29,0.119250451454391,1
337,1011,29,0.129692610129481,1
337,1012,29,0.133013674637595,1
337,1013,29,0.114212920465923,1
338,998,29,0.217338839944756,1
338,999,29,0.260898547573217,6
338,1000,29,0.230031922844756,1
338,1001,29,0.241224632983385,1
338,1002,29,0.277307467315192,2
338,1003,29,0.308879549886287,2
338,1004,29,0.364509509065785,2
338,1005,29,0.301901591751822,2
338,1006,29,0.206118030203234,2
338,1007,29,0.180299947833193,1
338,1008,29,0.152178863935646,1
338,1009,29,0.128674417603344,1
338,1010,29,0.129948486102685,1
338,1011,29,0.156911209211884,1
338,1012,29,0.161087156441724,1
338,1013,29,0.144900572157849,1
338,1014,29,0.125593224307188,1
338,1015,29,0.123433829886841,1
339,999,29,0.226954439261472,1
339,1000,29,0.239914385950896,1
339,1001,29,0.26752995964115,2
339,1002,29,0.306913566940509,2
339,1003,29,0.308523864971539,2
339,1004,29,0.333274127101028,2
339,1005,29,0.304421770470007,2
339,1006,29,0.232948016252829,2
339,1007,29,0.199810199312627,1
339,1008,29,0.161798255403297,1
339,1009,29,0.140938716579727,1
339,1010,29,0.148534041597211,1
339,1011,29,0.177360960197113,1
339,1012,29,0.17597747283336,1
339,1013,29,0.157361379924626,1
339,1014,29,0.13409804137524,1
339,1015,29,0.124059640782968,1
340,1000,29,0.200704393213925,1
340,1001,29,0.212903224590775,1
340,1002,29,0.244961715292091,2
340,1003,29,0.243774819156797,2
340,1004,29,0.274683251760477,2
340,1005,29,0.30956628251157,2
340,1006,29,0.29421160428335,2
340,1007,29,0.270542128724163,3
340,1008,29,0.192859693053411,1
340,1009,29,0.14645282201509,1
340,1010,29,0.140452873739086,1
340,1011,29,0.151464891418706,1
340,1012,29,0.152200026964313,1
340,1013,29,0.147548706527936,1
340,1014,29,0.13634100443856,1
341,1001,29,0.171922733111055,1
341,1002,29,0.22249131314791,1
341,1003,29,0.200455712906004,1
341,1004,29,0.197321582596015,1
341,1005,29,0.229892767393042,2
341,1006,29,0.270785179690012,3
341,1007,29,0.3205462553381,3
341,1008,29,0.251747003894563,3
341,1009,29,0.175968616629934,1
341,1010,29,0.157749074361866,1
341,1011,29,0.159737256700542,1
341,1012,29,0.161896556905959,1
341,1013,29,0.168364953591139,1
342,1002,29,0.208152766494231,1
342,1004,29,0.125541747624771,1
342,1005,29,0.131257213919427,1
342,1006,29,0.1819754190421,1
342,1007,29,0.284377685419929,3
342,1008,29,0.288437736508917,1
342,1009,29,0.240808886050716,1
342,1010,29,0.245218309654138,4
342,1011,29,0.253694190961792,4
342,1012,29,0.231097635026247,1
342,1013,29,0.221730409818929,1
342,1014,29,0.201152290991479,1
343,1007,29,0.175149040953252,1
343,1008,29,0.222605124783435,1
343,1009,29,0.252728087515118,4
343,1010,29,0.325602935511105,4
343,1011,29,0.350036494153163,4
343,1012,29,0.286164306692586,4
343,1013,29,0.248306109772265,1
343,1014,29,0.231123214379761,1
343,1015,29,0.183407615524699,1
343,1019,29,0.126711991271175,1
344,1008,29,0.118758037122378,1
344,1009,29,0.163515640479219,1
344,1010,29,0.238533030199936,4
344,1011,29,0.273515245718662,4
344,1012,29,0.236824772195365,1
344,1013,29,0.227741440126082,1
344,1014,29,0.251773054322727,1
344,1015,29,0.217673868236086,1
344,1018,29,0.13021506724732,1
344,1019,29,0.134651954502857,1
344,1020,29,0.119338165554287,1
345,1010,29,0.117538801712338,1
345,1011,29,0.139824142180128,1
345,1012,29,0.144987426546507,1
345,1013,29,0.166512935380146,1
345,1014,29,0.209886085670201,1
345,1018,29,0.124311489067912,1
345,1019,29,0.128346526092966,1
345,1020,29,0.1207872500631,1
346,1018,29,0.127956064092156,1
346,1019,29,0.12302029700503,1
346,1020,29,0.119123308406261,1
347,1019,29,0.129359442583019,1
326,1003,30,0.12874277053511,1
326,1008,30,0.11404977553764,1
327,1002,30,0.145971371945564,1
327,1003,30,0.131139056620252,1
328,1000,30,0.143940357144304,1
328,1001,30,0.14482583616457,1
328,1002,30,0.122808089651913,1
329,999,30,0.166197904207724,1
329,1000,30,0.198394290236064,1
329,1001,30,0.170790222544144,1
330,999,30,0.183173091010021,1
330,1000,30,0.205143211875528,1
330,1001,30,0.169177498478664,1
331,1000,30,0.176312654223952,1
331,1001,30,0.16757530293162,1
331,1002,30,0.125980435892911,1
332,999,30,0.157103007255774,1
332,1000,30,0.196224367297282,1
332,1001,30,0.217126432384912,1
332,1002,30,0.1858358875786,1
332,1003,30,0.126361499954447,1
333,998,30,0.164275483890236,1
333,999,30,0.208881942945511,1
333,1000,30,0.26923932467115,5
333,1001,30,0.293929501228987,5
333,1002,30,0.264011243986614,1
333,1003,30,0.178837543688641,1
333,1004,30,0.123495128475718,1
333,1005,30,0.118208092798691,1
333,1006,30,0.125414239493787,1
333,1007,30,0.120561781958576,1
334,998,30,0.19860672134964,1
334,999,30,0.274215757277467,5
334,1000,30,0.326515171571512,5
334,1001,30,0.322749447924064,5
334,1002,30,0.29427242002071,5
334,1003,30,0.213252408675348,1
334,1004,30,0.156103375070861,1
334,1005,30,0.151922104697472,1
334,1006,30,0.143433421936194,1
334,1007,30,0.121559376745626,1
335,997,30,0.139090902709989,1
335,998,30,0.245513744121106,6
335,999,30,0.30070470883394,6
335,1000,30,0.270545379139251,5
335,1001,30,0.233660964182404,5
335,1002,30,0.227498836681151,1
335,1003,30,0.200005059341745,1
335,1004,30,0.168511410699933,1
335,1005,30,0.156178723461185,1
335,1006,30,0.140640479218589,1
335,1007,30,0.130664755108545,1
335,1008,30,0.122103491520515,1
336,997,30,0.181806727209809,6
336,998,30,0.335973926583393,6
336,999,30,0.341161895261451,6
336,1000,30,0.220323333392061,6
336,1001,30,0.172831094582463,1
336,1002,30,0.189613576522167,1
336,1003,30,0.211090859088476,1
336,1004,30,0.209358858921527,1
336,1005,30,0.185838996671292,1
336,1006,30,0.169964723103734,1
336,1007,30,0.169089018882462,1
336,1008,30,0.144410701628948,1
337,997,30,0.186815769958797,6
337,998,30,0.331581438113651,6
337,999,30,0.339514570762903,6
337,1000,30,0.226510474957248,6
337,1001,30,0.201803810786648,1
337,1002,30,0.22896943752462,2
337,1003,30,0.264787363026802,2
337,1004,30,0.285868660242025,2
337,1005,30,0.242743966499432,1
337,1006,30,0.206562206491051,1
337,1007,30,0.196885791436975,1
337,1008,30,0.147501740385296,1
338,997,30,0.152199237914274,1
338,998,30,0.25511398640422,6
338,999,30,0.306359159184509,6
338,1000,30,0.265233588489347,6
338,1001,30,0.276865175325977,2
338,1002,30,0.302975053111311,2
338,1003,30,0.314906431855425,2
338,1004,30,0.338084317463237,2
338,1005,30,0.280357416585163,2
338,1006,30,0.215662991876129,1
338,1007,30,0.197003878074952,1
338,1008,30,0.151870993097908,1
338,1009,30,0.119151466893486,1
338,1011,30,0.128951185737292,1
338,1012,30,0.13220534586819,1
338,1013,30,0.128152207799696,1
338,1014,30,0.121059860963259,1
338,1015,30,0.115196606773922,1
339,998,30,0.205250404912216,1
339,999,30,0.263690442149725,6
339,1000,30,0.267257066096202,1
339,1001,30,0.293761209810148,2
339,1002,30,0.31669696304768,2
339,1003,30,0.308258437959798,2
339,1004,30,0.335956920788515,2
339,1005,30,0.315721508769196,2
339,1006,30,0.244668706859572,2
339,1007,30,0.207263306893169,1
339,1008,30,0.163305282094104,1
339,1009,30,0.139808726262195,1
339,1010,30,0.139223439562865,1
339,1011,30,0.155609041109648,1
339,1012,30,0.15137632938444,1
339,1013,30,0.141305353980096,1
339,1014,30,0.128098010661173,1
339,1015,30,0.115164797458157,1
340,999,30,0.209534828857166,1
340,1000,30,0.207505863230636,1
340,1001,30,0.217033465802665,1
340,1002,30,0.240883433614135,2
340,1003,30,0.244502441061731,2
340,1004,30,0.301124342132474,2
340,1005,30,0.357078965960994,2
340,1006,30,0.314737457378343,2
340,1007,30,0.252551340306306,2
340,1008,30,0.181255346108438,1
340,1009,30,0.150525957202491,1
340,1010,30,0.141375591210463,1
340,1011,30,0.139748098954695,1
340,1012,30,0.132334114123864,1
340,1013,30,0.129246938179649,1
340,1014,30,0.123594925640395,1
341,1001,30,0.176679103194461,1
341,1002,30,0.221216561590325,1
341,1003,30,0.196705923358604,1
341,1004,30,0.214260908840554,2
341,1005,30,0.28040004884102,2
341,1006,30,0.303605657192005,2
341,1007,30,0.291658191248582,3
341,1008,30,0.225352314375625,1
341,1009,30,0.176928996519606,1
341,1010,30,0.158102180142903,1
341,1011,30,0.148905507512746,1
341,1012,30,0.143080740122342,1
341,1013,30,0.143721860944605,1
341,1014,30,0.138336782855973,1
341,1015,30,0.11692350755778,1
342,1002,30,0.211703161919004,1
342,1003,30,0.154677067021392,1
342,1004,30,0.130763468801527,1
342,1005,30,0.16499665207246,1
342,1006,30,0.221688342852653,1
342,1007,30,0.284648977311066,1
342,1008,30,0.279134601007779,1
342,1009,30,0.237304137759563,1
342,1010,30,0.226938634706952,1
342,1011,30,0.230122416285088,1
342,1012,30,0.215319413579895,1
342,1013,30,0.197894856891761,1
342,1014,30,0.174642659257856,1
343,1006,30,0.119982077493853,1
343,1007,30,0.174936774715803,1
343,1008,30,0.215933718477686,1
343,1009,30,0.242376858024413,1
343,1010,30,0.294025412027798,4
343,1011,30,0.317140409169788,4
343,1012,30,0.27670962647643,1
343,1013,30,0.237691973519198,1
343,1014,30,0.215722347282074,1
343,1015,30,0.168071886274288,1
343,1016,30,0.1317478970521,1
343,1017,30,0.122984860414457,1
343,1018,30,0.12020168071898,1
343,1019,30,0.115672015311057,1
344,1009,30,0.154297781266661,1
344,1010,30,0.219276958824966,1
344,1011,30,0.247985779010025,1
344,1012,30,0.227937383626896,1
344,1013,30,0.235052895559264,1
344,1014,30,0.266516866498104,1
344,1015,30,0.224498585786792,1
344,1017,30,0.130437567581547,1
344,1018,30,0.1252252325672,1
344,1019,30,0.127888582648493,1
345,1011,30,0.133742627328416,1
345,1012,30,0.149626934786027,1
345,1013,30,0.192442415128129,1
345,1014,30,0.248034276145279,1
345,1015,30,0.230390881728324,1
345,1017,30,0.138817691189651,1
345,1018,30,0.126536398195256,1
345,1019,30,0.129010105399184,1
345,1020,30,0.11462426285061,1
346,1014,30,0.157883801711866,1
346,1017,30,0.142737479801497,1
346,1018,30,0.131969961642276,1
346,1019,30,0.130539908549336,1
346,1020,30,0.115753322795707,1
347,1018,30,0.130610805284214,1
347,1019,30,0.125932504047238,1
347,1020,30,0.114798395595113,1
348,1019,30,0.114145686336452,1
326,1001,31,0.12392732769055,1
326,1002,31,0.152325368151905,1
326,1003,31,0.138479035623513,1
327,1001,31,0.118974048403297,1
327,1002,31,0.153994562291096,1
327,1003,31,0.140649959595927,1
328,999,31,0.122018898290178,1
328,1000,31,0.132882810099727,1
328,1001,31,0.130343022899221,1
328,1002,31,0.11927195601218,1
329,998,31,0.128184759058035,1
329,999,31,0.192931449499526,1
329,1000,31,0.213206078483486,1
329,1001,31,0.167637072595147,1
330,998,31,0.1450723495291,1
330,999,31,0.209901937332186,1
330,1000,31,0.217184209690778,1
330,1001,31,0.161423232874152,1
331,999,31,0.165600781757804,1
331,1000,31,0.174507119304083,1
331,1001,31,0.148504163687512,1
332,999,31,0.15976109307785,1
332,1000,31,0.191620672508055,1
332,1001,31,0.188150442211907,1
332,1002,31,0.154826515454216,1
333,998,31,0.175505220496383,1
333,999,31,0.207102482007539,1
333,1000,31,0.26549510558149,5
333,1001,31,0.275305140960139,5
333,1002,31,0.234598379182872,1
333,1003,31,0.152921336468932,1
334,998,31,0.214960219159002,1
334,999,31,0.264790754764284,5
334,1000,31,0.314502979971131,5
334,1001,31,0.317235519141694,5
334,1002,31,0.276239281991787,5
334,1003,31,0.18161101924632,1
334,1004,31,0.127453345002166,1
334,1005,31,0.127496801638661,1
334,1006,31,0.124502486284897,1
335,997,31,0.150350693878828,1
335,998,31,0.247360615841543,1
335,999,31,0.289550791692768,6
335,1000,31,0.264855103561522,5
335,1001,31,0.234604479599594,5
335,1002,31,0.215228920139562,1
335,1003,31,0.170742102268611,1
335,1004,31,0.142915805110387,1
335,1005,31,0.137093911275351,1
335,1006,31,0.123172324571565,1
336,997,31,0.176323500717776,1
336,998,31,0.316527705925808,6
336,999,31,0.326239687115986,6
336,1000,31,0.229671126770051,6
336,1001,31,0.182999723761825,1
336,1002,31,0.186767508360868,1
336,1003,31,0.191065511032615,1
336,1004,31,0.176862951853627,1
336,1005,31,0.153897650458652,1
336,1006,31,0.140661807123384,1
336,1007,31,0.142503120162947,1
336,1008,31,0.127472140880716,1
337,997,31,0.186464348269634,6
337,998,31,0.323867166746953,6
337,999,31,0.336848241134446,6
337,1000,31,0.246270125133444,6
337,1001,31,0.219502768458613,1
337,1002,31,0.234939507890924,2
337,1003,31,0.253024817437375,2
337,1004,31,0.234190993825248,1
337,1005,31,0.188105831442518,1
337,1006,31,0.174284925168379,1
337,1007,31,0.168737502978369,1
337,1008,31,0.129496631298068,1
338,997,31,0.162748354088725,1
338,998,31,0.264474239706713,6
338,999,31,0.318958780873879,6
338,1000,31,0.288834852439163,6
338,1001,31,0.295406720671293,2
338,1002,31,0.301368241032694,2
338,1003,31,0.299974825770685,2
338,1004,31,0.284817951788148,2
338,1005,31,0.237360478287745,2
338,1006,31,0.214574691665154,1
338,1007,31,0.186089938137535,1
338,1008,31,0.13828951051481,1
339,997,31,0.160813344301207,1
339,998,31,0.231063882527549,1
339,999,31,0.275529136956381,6
339,1000,31,0.273010277247217,1
339,1001,31,0.295616066245909,2
339,1002,31,0.299284418763129,2
339,1003,31,0.294855775313974,2
339,1004,31,0.313470266568897,2
339,1005,31,0.299930827398342,2
339,1006,31,0.25544432750278,2
339,1007,31,0.199148056784092,1
339,1008,31,0.154800276596192,1
339,1009,31,0.132722079429027,1
339,1010,31,0.123362132325058,1
339,1011,31,0.123282273394957,1
339,1012,31,0.1201857230652,1
339,1013,31,0.118626089112815,1
340,998,31,0.218896895797063,1
340,999,31,0.210756184103134,1
340,1000,31,0.19836880509748,1
340,1001,31,0.212548175626805,1
340,1002,31,0.227016526900388,2
340,1003,31,0.242877940129992,2
340,1004,31,0.302680325256319,2
340,1005,31,0.350619072173253,2
340,1006,31,0.302793147635078,2
340,1007,31,0.219319402650963,2
340,1008,31,0.170438247342267,1
340,1009,31,0.151626528908108,1
340,1010,31,0.138907006943358,1
340,1011,31,0.127384685871878,1
340,1012,31,0.11613515235355,1
341,1001,31,0.173705114711859,1
341,1002,31,0.197795601462932,1
341,1003,31,0.186581186559788,1
341,1004,31,0.220170563882952,2
341,1005,31,0.301750235466664,2
341,1006,31,0.311951569003627,2
341,1007,31,0.24544136350108,2
341,1008,31,0.198845273552578,1
341,1009,31,0.17822446358494,1
341,1010,31,0.160494226556193,1
341,1011,31,0.143984579277106,1
341,1012,31,0.129873349695954,1
341,1013,31,0.121064336172437,1
342,1004,31,0.132345313923676,1
342,1005,31,0.199115152219765,1
342,1006,31,0.255261809629501,2
342,1007,31,0.247716041665234,1
342,1008,31,0.234901445059176,1
342,1009,31,0.220179796946098,1
342,1010,31,0.203758582155749,1
342,1011,31,0.198261753383187,1
342,1012,31,0.185784352011851,1
342,1013,31,0.163347042861858,1
342,1014,31,0.142784434167271,1
342,1015,31,0.115064788309887,1
343,1006,31,0.132316154402819,1
343,1007,31,0.155597570441912,1
343,1008,31,0.188820216149777,1
343,1009,31,0.221264469882266,1
343,1010,31,0.247310140192758,1
343,1011,31,0.26081653347659,1
343,1012,31,0.244124921836939,1
343,1013,31,0.210822911827356,1
343,1014,31,0.186689757489828,1
343,1015,31,0.14542903547748,1
343,1016,31,0.118610425880691,1
343,1017,31,0.11537739344786,1
344,1009,31,0.146129499928821,1
344,1010,31,0.192827483324193,1
344,1011,31,0.217710541397616,1
344,1012,31,0.222961280772834,1
344,1013,31,0.236837656087052,1
344,1014,31,0.249633056401108,1
344,1015,31,0.204029308757306,1
344,1016,31,0.151478140393247,1
344,1017,31,0.131466724370171,1
344,1018,31,0.123530529735692,1
344,1019,31,0.11952362764413,1
345,1011,31,0.132961408905139,1
345,1012,31,0.170336872077512,1
345,1013,31,0.22680857099599,1
345,1014,31,0.267040324649575,1
345,1015,31,0.235860929907013,1
345,1016,31,0.178595870616144,1
345,1017,31,0.141539737172378,1
345,1018,31,0.126904177951652,1
345,1019,31,0.12681916075413,1
346,1013,31,0.157494246529758,1
346,1014,31,0.19291062799998,1
346,1015,31,0.191190039616436,1
346,1017,31,0.138409128145401,1
346,1018,31,0.131740866262943,1
346,1019,31,0.138497678402801,1
347,1017,31,0.116171342663563,1
347,1018,31,0.117648267684213,1
347,1019,31,0.122224781466114,1
325,1001,32,0.127074860074341,1
325,1002,32,0.123708289755003,1
326,1000,32,0.116162498237003,1
326,1001,32,0.125951170380258,1
326,1002,32,0.151210169578395,1
326,1003,32,0.130447907670122,1
327,1002,32,0.141832498290706,1
327,1003,32,0.128559699149117,1
328,999,32,0.114406638139014,1
328,1000,32,0.116152958975333,1
329,998,32,0.124488412929718,1
329,999,32,0.178579571433242,1
329,1000,32,0.186631615101108,1
329,1001,32,0.139833092598485,1
330,998,32,0.142446096576522,1
330,999,32,0.198450913409036,1
330,1000,32,0.196035760784147,1
330,1001,32,0.137665218834431,1
331,998,32,0.125743544228115,1
331,999,32,0.156313333042523,1
331,1000,32,0.156206493311823,1
331,1001,32,0.124055271565586,1
332,998,32,0.128006009781959,1
332,999,32,0.151325771297591,1
332,1000,32,0.172394903009969,1
332,1001,32,0.159889649349931,1
332,1002,32,0.127294369084539,1
333,999,32,0.189824535527461,1
333,1000,32,0.234865643385749,1
333,1001,32,0.239746000317127,1
333,1002,32,0.19361131621178,1
333,1003,32,0.12490068568684,1
334,998,32,0.206995524508177,1
334,999,32,0.235252442781153,1
334,1000,32,0.271950547713785,5
334,1001,32,0.279003948453504,5
334,1002,32,0.233249127169334,1
334,1003,32,0.1488057692324,1
335,997,32,0.160450263514449,1
335,998,32,0.228954810656726,1
335,999,32,0.263583508204095,1
335,1000,32,0.25246343777655,1
335,1001,32,0.228028772109064,1
335,1002,32,0.197200327981015,1
335,1003,32,0.146734689532128,1
335,1004,32,0.11929754714256,1
336,997,32,0.168724866400874,1
336,998,32,0.26338240643586,1
336,999,32,0.291683323081179,6
336,1000,32,0.244724646974302,1
336,1001,32,0.198416265868503,1
336,1002,32,0.181112539828184,1
336,1003,32,0.165805181048591,1
336,1004,32,0.1431839643551,1
336,1005,32,0.122068443566529,1
337,997,32,0.177055209195302,1
337,998,32,0.272237738374372,6
337,999,32,0.307854915414307,6
337,1000,32,0.270771942492337,6
337,1001,32,0.234801435910906,1
337,1002,32,0.225539425226745,1
337,1003,32,0.222894270403821,1
337,1004,32,0.183444971744471,1
337,1005,32,0.145524063011322,1
337,1006,32,0.143140048420821,1
337,1007,32,0.133959757411629,1
338,997,32,0.164960638415441,1
338,998,32,0.242538530844414,6
338,999,32,0.30555055954718,6
338,1000,32,0.305126710130526,6
338,1001,32,0.294029981451907,6
338,1002,32,0.281579996625221,2
338,1003,32,0.275317930636896,2
338,1004,32,0.235695417828612,1
338,1005,32,0.210349882217205,1
338,1006,32,0.216546845688852,1
338,1007,32,0.167251168241579,1
338,1008,32,0.119811795784617,1
339,997,32,0.173366800674843,1
339,998,32,0.22935152617352,1
339,999,32,0.265294828193893,6
339,1000,32,0.267675639476772,6
339,1001,32,0.273533546968828,1
339,1002,32,0.269904623399842,2
339,1003,32,0.280556327856274,2
339,1004,32,0.282357057814709,2
339,1005,32,0.285004214704897,2
339,1006,32,0.27217138750987,1
339,1007,32,0.191853289170399,1
339,1008,32,0.142152946821608,1
339,1009,32,0.120226223708264,1
340,998,32,0.22464348834924,1
340,999,32,0.200032287456535,1
340,1000,32,0.185580635779307,1
340,1001,32,0.195847978651651,1
340,1002,32,0.207581517819482,1
340,1003,32,0.239205771908104,1
340,1004,32,0.284878673310578,2
340,1005,32,0.315608804159099,2
340,1006,32,0.27771254440703,2
340,1007,32,0.19595963512065,1
340,1008,32,0.164398328382182,1
340,1009,32,0.148922030456107,1
340,1010,32,0.130349865258518,1
341,1002,32,0.164676191764692,1
341,1003,32,0.172443965434803,1
341,1004,32,0.218832405677429,1
341,1005,32,0.298043325489312,2
341,1006,32,0.296763109465783,2
341,1007,32,0.209551128040068,1
341,1008,32,0.18096230234532,1
341,1009,32,0.176637059781917,1
341,1010,32,0.158162430590683,1
341,1011,32,0.135276093083974,1
341,1012,32,0.113792804315873,1
342,1004,32,0.134965619558793,1
342,1005,32,0.221625666370424,1
342,1006,32,0.26753229146067,1
342,1007,32,0.206013451630856,1
342,1008,32,0.188902960412111,1
342,1009,32,0.198202280208581,1
342,1010,32,0.183850567018424,1
342,1011,32,0.168358994496812,1
342,1012,32,0.151609205137842,1
342,1013,32,0.131008745595099,1
342,1014,32,0.114521603907432,1
343,1006,32,0.139245638955763,1
343,1007,32,0.135221342432737,1
343,1008,32,0.159758608159069,1
343,1009,32,0.195218658249379,1
343,1010,32,0.206179340568977,1
343,1011,32,0.211654923874808,1
343,1012,32,0.205811172175995,1
343,1013,32,0.178424399443416,1
343,1014,32,0.152581220571378,1
343,1015,32,0.121029076234859,1
344,1010,32,0.170039517981343,1
344,1011,32,0.20039411989547,1
344,1012,32,0.223695968797523,1
344,1013,32,0.226547289441173,1
344,1014,32,0.211201278986519,1
344,1015,32,0.171204827120785,1
344,1016,32,0.140361120174064,1
344,1017,32,0.128849645596408,1
344,1018,32,0.119901818150299,1
345,1012,32,0.192626004696237,1
345,1013,32,0.240708924009912,1
345,1014,32,0.254831600705067,1
345,1015,32,0.221466608014732,1
345,1016,32,0.173263517557753,1
345,1017,32,0.139797290925058,1
345,1018,32,0.127461553477949,1
345,1019,32,0.123798524104277,1
346,1013,32,0.170659511105538,1
346,1014,32,0.214829990571912,1
346,1015,32,0.213258532645803,1
346,1017,32,0.128612777485345,1
346,1018,32,0.126769639031512,1
346,1019,32,0.133789911446445,1
324,1001,33,0.13568901356874,1
325,1000,33,0.126179665139411,1
325,1001,33,0.143232261283628,1
325,1002,33,0.127842205349166,1
326,999,33,0.124794387691988,1
326,1001,33,0.119619573773541,1
326,1002,33,0.130687131154437,1
329,999,33,0.143496628377405,1
329,1000,33,0.14242793664875,1
330,998,33,0.128466355707149,1
330,999,33,0.167311583565487,1
330,1000,33,0.160881296819521,1
331,998,33,0.117141874211951,1
331,999,33,0.140907437222943,1
331,1000,33,0.135037293566844,1
332,999,33,0.134139696151198,1
332,1000,33,0.145017787307723,1
332,1001,33,0.131268237066245,1
333,998,33,0.134411518001317,1
333,999,33,0.156209767280643,1
333,1000,33,0.184848044036812,1
333,1001,33,0.185795551811664,1
333,1002,33,0.145073056141075,1
334,998,33,0.16800659532775,1
334,999,33,0.184197136638688,1
334,1000,33,0.204313814292386,1
334,1001,33,0.207877988650681,1
334,1002,33,0.171295085023793,1
334,1003,33,0.115424277152437,1
335,998,33,0.188393340078494,1
335,999,33,0.215142383726293,1
335,1000,33,0.216679853616379,1
335,1001,33,0.196911865418872,1
335,1002,33,0.16488461874374,1
335,1003,33,0.122293311050874,1
336,998,33,0.19640169157254,1
336,999,33,0.244223753298582,1
336,1000,33,0.247112265285878,1
336,1001,33,0.201729098347103,1
336,1002,33,0.163699029840601,1
336,1003,33,0.135089665291097,1
336,1004,33,0.114190155783445,1
337,997,33,0.151696083080233,1
337,998,33,0.201217110863368,1
337,999,33,0.264642813770341,6
337,1000,33,0.281977819167443,1
337,1001,33,0.231339838057725,1
337,1002,33,0.192817155012484,1
337,1003,33,0.173034386847822,1
337,1004,33,0.139055937194066,1
337,1005,33,0.120700713649831,1
337,1006,33,0.122382061515001,1
338,998,33,0.196225450768978,1
338,999,33,0.261032474096312,6
338,1000,33,0.288099387141301,6
338,1001,33,0.25718139172222,1
338,1002,33,0.234985178578276,1
338,1003,33,0.227946640243775,1
338,1004,33,0.190461157586813,1
338,1005,33,0.194800426397931,1
338,1006,33,0.213089793706047,1
338,1007,33,0.145270471750171,1
339,998,33,0.199391932130579,1
339,999,33,0.227320770463318,1
339,1000,33,0.239258226070421,1
339,1001,33,0.229296151348371,1
339,1002,33,0.229967998014703,1
339,1003,33,0.250550026761751,1
339,1004,33,0.242747028484659,1
339,1005,33,0.267062983340257,1
339,1006,33,0.276973334065697,1
339,1007,33,0.180315717057114,1
339,1008,33,0.129296518786598,1
340,999,33,0.183630433834315,1
340,1000,33,0.180581344275581,1
340,1001,33,0.181296871338867,1
340,1002,33,0.188422994227734,1
340,1003,33,0.222608280983593,1
340,1004,33,0.247959540152001,1
340,1005,33,0.265348836902556,2
340,1006,33,0.24414701523804,1
340,1007,33,0.180656727996504,1
340,1008,33,0.161407440096499,1
340,1009,33,0.141607147954844,1
340,1010,33,0.118351958996909,1
341,1003,33,0.155894300364169,1
341,1004,33,0.202038712161046,1
341,1005,33,0.260659995370278,1
341,1006,33,0.24877141375815,1
341,1007,33,0.183608093119022,1
341,1008,33,0.173024176304776,1
341,1009,33,0.174016294849015,1
341,1010,33,0.152504258750377,1
341,1011,33,0.123878948323959,1
342,1004,33,0.133553891269753,1
342,1005,33,0.20986502863333,1
342,1006,33,0.229965195120533,1
342,1007,33,0.165492634794949,1
342,1008,33,0.154555576869066,1
342,1009,33,0.176724667890016,1
342,1010,33,0.165896887506149,1
342,1011,33,0.139955583784442,1
342,1012,33,0.118129835522402,1
343,1006,33,0.132149005340008,1
343,1008,33,0.133434886036207,1
343,1009,33,0.161442417389287,1
343,1010,33,0.164032279825126,1
343,1011,33,0.162748530741719,1
343,1012,33,0.159592954758273,1
343,1013,33,0.140724142076491,1
343,1014,33,0.117878411204642,1
344,1010,33,0.1399962610805,1
344,1011,33,0.175834525230711,1
344,1012,33,0.20646827420577,1
344,1013,33,0.195050072408885,1
344,1014,33,0.161125961216047,1
344,1015,33,0.134169644722094,1
344,1016,33,0.122990996161778,1
344,1017,33,0.11561165887148,1
345,1012,33,0.193775544611759,1
345,1013,33,0.218731572148522,1
345,1014,33,0.209002985576919,1
345,1015,33,0.187463191404508,1
345,1016,33,0.155507948489683,1
345,1017,33,0.13266742299272,1
345,1018,33,0.120487340386954,1
346,1014,33,0.200505717480139,1
346,1015,33,0.203098371033281,1
346,1016,33,0.15327337055514,1
346,1017,33,0.12327584322598,1
346,1018,33,0.122163270893645,1
346,1019,33,0.119303576898085,1
324,1000,34,0.116856685618628,1
324,1001,34,0.136702071381188,1
325,999,34,0.11617201394494,1
325,1000,34,0.116642688181839,1
325,1001,34,0.136849105556429,1
325,1002,34,0.115985244622942,1
326,998,34,0.133565032185233,1
327,997,34,0.145871786764479,1
330,999,34,0.134862301111105,1
330,1000,34,0.125052230401858,1
331,999,34,0.124660838028613,1
331,1000,34,0.113877609529802,1
332,999,34,0.116768488667216,1
332,1000,34,0.119076872222603,1
333,999,34,0.127464686124374,1
333,1000,34,0.142701077507891,1
333,1001,34,0.134641414207555,1
334,997,34,0.128448572639099,1
334,998,34,0.136768092493435,1
334,999,34,0.14538389474911,1
334,1000,34,0.152413035144336,1
334,1001,34,0.145074092505306,1
334,1002,34,0.117473075021747,1
335,998,34,0.157625994332595,1
335,999,34,0.177281854986452,1
335,1000,34,0.183495211855931,1
335,1001,34,0.16212760724509,1
335,1002,34,0.128680871326053,1
336,998,34,0.15910699414897,1
336,999,34,0.216458613406841,1
336,1000,34,0.246044221284867,1
336,1001,34,0.198013991670835,1
336,1002,34,0.141451069146316,1
337,998,34,0.159558048126682,1
337,999,34,0.239162904114922,1
337,1000,34,0.286074025235846,1
337,1001,34,0.223857830047384,1
337,1002,34,0.161439967801106,1
337,1003,34,0.128966519217161,1
338,998,34,0.159690502541495,1
338,999,34,0.219247234014529,1
338,1000,34,0.257397991846452,1
338,1001,34,0.217834057170939,1
338,1002,34,0.190716056080118,1
338,1003,34,0.179212165804333,1
338,1004,34,0.153469467155215,1
338,1005,34,0.170806109536727,1
338,1006,34,0.181620110987072,1
338,1007,34,0.12033508905996,1
339,999,34,0.187641504936533,1
339,1000,34,0.208603561380886,1
339,1001,34,0.19268590183803,1
339,1002,34,0.195430618288305,1
339,1003,34,0.212841725795172,1
339,1004,34,0.203519912184148,1
339,1005,34,0.235226816320174,1
339,1006,34,0.246072320887761,1
339,1007,34,0.162283803822281,1
340,1000,34,0.19042852389041,1
340,1001,34,0.178121392451443,1
340,1002,34,0.172070721212463,1
340,1003,34,0.196556639801907,1
340,1004,34,0.210080521732134,1
340,1005,34,0.225012857982581,1
340,1006,34,0.215762529949749,1
340,1007,34,0.17378824761078,1
340,1008,34,0.152436164909668,1
340,1009,34,0.126103998773698,1
341,1004,34,0.180089683663009,1
341,1005,34,0.213061105259841,1
341,1006,34,0.199280852728026,1
341,1007,34,0.1696663797508,1
341,1008,34,0.168021410625503,1
341,1009,34,0.161517353589292,1
341,1010,34,0.136211835769433,1
342,1005,34,0.173122642683565,1
342,1006,34,0.17184984608578,1
342,1007,34,0.13757361836867,1
342,1008,34,0.139489019673867,1
342,1009,34,0.157245577998703,1
342,1010,34,0.14600670254434,1
342,1011,34,0.116013461994498,1
343,1008,34,0.119616417573383,1
343,1009,34,0.132959300846078,1
343,1010,34,0.13116742709107,1
343,1011,34,0.126721118342526,1
343,1012,34,0.124771175488592,1
344,1011,34,0.14897931313359,1
344,1012,34,0.177832023070598,1
344,1013,34,0.161795935360644,1
344,1014,34,0.124722760791402,1
345,1011,34,0.129236951397061,1
345,1012,34,0.171609362476775,1
345,1013,34,0.17921658212918,1
345,1014,34,0.162520318627356,1
345,1015,34,0.153809806813228,1
345,1016,34,0.138028122968196,1
345,1017,34,0.126716419372888,1
345,1018,34,0.117048377670722,1
346,1013,34,0.135011101816285,1
346,1014,34,0.163346713109602,1
346,1015,34,0.170851403364359,1
346,1016,34,0.138776542818943,1
346,1017,34,0.12636747082564,1
346,1018,34,0.124649438022074,1
324,1001,35,0.124909800981324,1
325,1001,35,0.121272551167893,1
326,997,35,0.171829848966872,1
326,998,35,0.116410024412031,1
327,996,35,0.140173491140829,1
327,997,35,0.156288648730845,1
334,998,35,0.118992326099731,1
334,999,35,0.122640387076387,1
334,1000,35,0.118266117418748,1
335,997,35,0.128255608685448,1
335,998,35,0.135932759369698,1
335,999,35,0.151086830458066,1
335,1000,35,0.159162887156234,1
335,1001,35,0.13659248764065,1
336,998,35,0.14225064770409,1
336,999,35,0.202909281668629,1
336,1000,35,0.250114683123628,1
336,1001,35,0.197487200666213,1
336,1002,35,0.12513167714164,1
337,998,35,0.141942482444697,1
337,999,35,0.228922070968527,1
337,1000,35,0.295284170601004,1
337,1001,35,0.223910708176886,1
337,1002,35,0.141270412017906,1
338,998,35,0.135677024718889,1
338,999,35,0.188166882717204,1
338,1000,35,0.229495274603075,1
338,1001,35,0.188795355185105,1
338,1002,35,0.155748114123299,1
338,1003,35,0.141230205796498,1
338,1004,35,0.130933302989845,1
338,1005,35,0.148441970056799,1
338,1006,35,0.146137319768016,1
339,999,35,0.148924126738301,1
339,1000,35,0.172268537235012,1
339,1001,35,0.159219109915754,1
339,1002,35,0.162102958264011,1
339,1003,35,0.174470328373891,1
339,1004,35,0.173742258948039,1
339,1005,35,0.202082051028879,1
339,1006,35,0.204823611278997,1
339,1007,35,0.146179798924612,1
340,1000,35,0.183601839603039,1
340,1001,35,0.165133628803916,1
340,1002,35,0.151276202467508,1
340,1003,35,0.166759436967809,1
340,1004,35,0.179410653108259,1
340,1005,35,0.202937334164058,1
340,1006,35,0.207579657074613,1
340,1007,35,0.176799215453434,1
340,1008,35,0.140607280232605,1
341,1003,35,0.132915644002857,1
341,1004,35,0.155200489842264,1
341,1005,35,0.17146608512187,1
341,1006,35,0.169720753542316,1
341,1007,35,0.165539271185334,1
341,1008,35,0.159427042266419,1
341,1009,35,0.143586085453507,1
341,1010,35,0.118027553438944,1
342,1004,35,0.121626139800447,1
342,1005,35,0.132735328403569,1
342,1006,35,0.12331200998226,1
342,1007,35,0.120228590858382,1
342,1008,35,0.133076610210882,1
342,1009,35,0.141670448610985,1
342,1010,35,0.128741204211897,1
343,1009,35,0.117061697306461,1
343,1010,35,0.113861263239435,1
344,1011,35,0.123229171504996,1
344,1012,35,0.143582776154088,1
344,1013,35,0.133432648431618,1
345,1012,35,0.138565666251713,1
345,1013,35,0.142088009181057,1
345,1014,35,0.126322035675614,1
345,1015,35,0.125893793487845,1
345,1016,35,0.12835680729721,1
345,1017,35,0.131099133043635,1
345,1018,35,0.122503681212855,1
346,1014,35,0.121872653164976,1
346,1015,35,0.133422331896775,1
346,1016,35,0.135085837809563,1
346,1017,35,0.145806554702272,1
346,1018,35,0.138020774203651,1
346,1019,35,0.116171754853883,1
326,996,36,0.146715187041603,1
326,997,36,0.153602710620067,1
327,996,36,0.140304685430952,1
327,997,36,0.146357794481247,1
335,998,36,0.115609185729566,1
335,999,36,0.12324099547872,1
335,1000,36,0.127931238458082,1
336,997,36,0.11475757697666,1
336,998,36,0.12567893633982,1
336,999,36,0.17544195517084,1
336,1000,36,0.220465974796187,1
336,1001,36,0.168805632149677,1
337,998,36,0.125085959346823,1
337,999,36,0.199894286137715,1
337,1000,36,0.26365007105219,1
337,1001,36,0.196032039294409,1
337,1002,36,0.11456690951193,1
338,998,36,0.114012183780542,1
338,999,36,0.15567627523912,1
338,1000,36,0.190703761031744,1
338,1001,36,0.154776557987546,1
338,1002,36,0.121186862688994,1
338,1005,36,0.121381722718112,1
339,999,36,0.12048650422945,1
339,1000,36,0.140437516705485,1
339,1001,36,0.12965826878747,1
339,1002,36,0.128620361787216,1
339,1003,36,0.135734660702359,1
339,1004,36,0.143764752291519,1
339,1005,36,0.162330946617915,1
339,1006,36,0.161644425976224,1
339,1007,36,0.123980029167058,1
340,1001,36,0.14190630391155,1
340,1002,36,0.127301364543097,1
340,1003,36,0.136130634276579,1
340,1004,36,0.149354217894072,1
340,1005,36,0.175397026426063,1
340,1006,36,0.192407861802526,1
340,1007,36,0.164575499558179,1
340,1008,36,0.118494282425646,1
341,1003,36,0.121467375866412,1
341,1004,36,0.132791527609356,1
341,1005,36,0.139065205587812,1
341,1006,36,0.148246815606025,1
341,1007,36,0.150975303534596,1
341,1008,36,0.137292587009137,1
341,1009,36,0.117488608708343,1
342,1004,36,0.115069569717588,1
342,1008,36,0.120781361629971,1
342,1009,36,0.12042902134524,1
345,1017,36,0.123069630297788,1
346,1016,36,0.124360492608415,1
346,1017,36,0.149753795189367,1
346,1018,36,0.132607325644202,1
320,1005,37,0.127094350788,1
323,998,37,0.157856809134401,1
323,999,37,0.117719800369869,1
324,998,37,0.114372544111195,1
326,996,37,0.126220860617585,1
326,997,37,0.117222345539097,1
327,996,37,0.116510799056607,1
327,997,37,0.115542870195663,1
335,996,37,0.115064446780765,1
336,998,37,0.117138847557322,1
336,999,37,0.158255632710255,1
336,1000,37,0.188982077399638,1
336,1001,37,0.139394074578089,1
337,998,37,0.119639653330512,1
337,999,37,0.177732202352189,1
337,1000,37,0.224467636182264,1
337,1001,37,0.164355484142732,1
338,999,37,0.133003699631874,1
338,1000,37,0.158431449546633,1
338,1001,37,0.128756667237295,1
339,1005,37,0.118745965834463,1
339,1006,37,0.119748024053825,1
340,1000,37,0.120142478412298,1
340,1004,37,0.118428379082062,1
340,1005,37,0.137940432422033,1
340,1006,37,0.158158779762143,1
340,1007,37,0.133180953245935,1
341,1005,37,0.116021246503095,1
341,1006,37,0.127821654717544,1
341,1007,37,0.124960359068173,1
346,1017,37,0.137191411951107,1
346,1018,37,0.115459230891493,1
319,1005,38,0.138366201467887,1
319,1006,38,0.114946395473387,1
320,1005,38,0.120550358398305,1
322,998,38,0.129542113555559,1
322,1000,38,0.114542319415182,1
323,997,38,0.176281421974634,1
323,998,38,0.186759182116423,1
323,999,38,0.12533100060307,1
323,1000,38,0.121217753409191,1
324,997,38,0.117515495294011,1
324,998,38,0.120472689965328,1
335,995,38,0.120529372022632,1
336,999,38,0.14560188454356,1
336,1000,38,0.151337618825047,1
337,998,38,0.115889757791316,1
337,999,38,0.160718246106168,1
337,1000,38,0.178201416257672,1
337,1001,38,0.131376207376106,1
338,999,38,0.115926254299852,1
338,1000,38,0.128533742935882,1
346,1017,38,0.119674124218051,1
319,1005,39,0.126093717569455,1
322,997,39,0.125992483627094,1
322,998,39,0.131333492682185,1
322,1000,39,0.127623461835275,1
322,1001,39,0.121122278354431,1
323,997,39,0.18011996198616,1
323,998,39,0.182320693207075,1
323,999,39,0.12783073468143,1
323,1000,39,0.127006672018703,1
324,997,39,0.12081643313769,1
324,998,39,0.117786610532155,1
335,995,39,0.11490609503705,1
336,999,39,0.132660321542366,1
336,1000,39,0.119017092849473,1
337,998,39,0.117700686515931,1
337,999,39,0.146630817571725,1
337,1000,39,0.139294265636546,1
322,997,40,0.114754656313828,1
322,998,40,0.125639636937114,1
322,999,40,0.128874082593895,1
322,1000,40,0.143722791317039,1
322,1001,40,0.122584635391518,1
323,997,40,0.148475357472643,1
323,998,40,0.152036092985991,1
323,999,40,0.127395049514185,1
323,1000,40,0.12476343808746,1
324,997,40,0.114333079832361,1
321,999,41,0.115016514935092,1
321,1000,41,0.132513310920858,1
322,999,41,0.145852343158286,1
322,1000,41,0.164084934194169,1
322,1001,41,0.122615137475128,1
323,998,41,0.120093580863591,1
323,999,41,0.124218781576723,1
323,1000,41,0.123114464827635,1
321,999,42,0.118236451492642,1
321,1000,42,0.135180559144883,1
322,999,42,0.142905594567341,1
322,1000,42,0.161458363266202,1
322,1001,42,0.116431623184749,1
323,999,42,0.118840227871998,1
323,1000,42,0.117678098486447,1
324,997,42,0.114377890808476,1
326,993,42,0.135881400455944,1
326,994,42,0.121899080452861,1
327,993,42,0.119150395198656,1
337,995,42,0.14703731966438,1
337,996,42,0.129465081073361,1
338,994,42,0.117529474434261,1
338,995,42,0.1460136273417,1
338,996,42,0.127967240338235,1
338,997,42,0.113937730432054,1
321,999,43,0.121344284060275,1
321,1000,43,0.134709731808722,1
321,1001,43,0.11668259998159,1
322,999,43,0.137758220747277,1
322,1000,43,0.146456355074967,1
323,999,43,0.121139013281384,1
324,997,43,0.122504776461417,1
325,993,43,0.115377581877721,1
325,996,43,0.117630048872111,1
325,997,43,0.120060299439544,1
326,992,43,0.145519658463341,1
326,993,43,0.157415329748958,1
326,994,43,0.124102072832098,1
327,992,43,0.140918001071977,1
327,993,43,0.149890124193179,1
327,994,43,0.125034023366622,1
328,992,43,0.114992737442116,1
328,993,43,0.1165947445593,1
336,995,43,0.121029017350527,1
337,994,43,0.126693595806079,1
337,995,43,0.172055222856467,1
337,996,43,0.14783404822052,1
338,994,43,0.142606568156164,1
338,995,43,0.173734721753634,1
338,996,43,0.1527316818147,1
338,997,43,0.140259285611524,1
339,997,43,0.128023215783563,1
321,999,44,0.124074408973256,1
321,1000,44,0.132293778356927,1
321,1001,44,0.118130671679906,1
322,999,44,0.133959792742228,1
322,1000,44,0.128593675408273,1
323,999,44,0.121317338590275,1
324,996,44,0.115443544105636,1
324,997,44,0.120746619874508,1
325,992,44,0.115616204741856,1
325,993,44,0.118004294128083,1
325,996,44,0.125664168149531,1
325,997,44,0.116120172179669,1
326,991,44,0.116555692470786,1
326,992,44,0.167582051075986,1
326,993,44,0.1602533896412,1
326,994,44,0.12387592166933,1
327,991,44,0.131523535973003,1
327,992,44,0.174378845676792,1
327,993,44,0.174685397505509,1
327,994,44,0.13688816942181,1
328,991,44,0.140729912740958,1
328,992,44,0.156270641902335,1
328,993,44,0.158341321189154,1
328,994,44,0.129511729240612,1
329,990,44,0.116717577274379,1
329,991,44,0.130773820666968,1
329,992,44,0.115829106930083,1
336,995,44,0.123611695897948,1
337,994,44,0.137402665378058,1
337,995,44,0.178771699229388,1
337,996,44,0.151270172711983,1
338,994,44,0.153865134530912,1
338,995,44,0.184651817891208,1
338,996,44,0.171841861370456,1
338,997,44,0.1579492339808,1
339,995,44,0.11821766739096,1
339,996,44,0.137563584478618,1
339,997,44,0.158683851344292,1
340,997,44,0.115794164967893,1
321,999,45,0.127945429581924,1
321,1000,45,0.125167408153869,1
322,998,45,0.120005949201759,1
322,999,45,0.13211295635239,1
323,998,45,0.115890617502553,1
323,999,45,0.113993658769917,1
324,995,45,0.114648558525702,1
324,996,45,0.119145460691694,1
325,992,45,0.121247431112163,1
325,993,45,0.120012826891654,1
325,994,45,0.113873994031861,1
325,995,45,0.12531944749727,1
325,996,45,0.123360189142125,1
326,991,45,0.12796162277303,1
326,992,45,0.170072905397187,1
326,993,45,0.153301599703562,1
326,994,45,0.127136865275194,1
326,995,45,0.11796866910765,1
327,991,45,0.150785766649026,1
327,992,45,0.189122869835762,1
327,993,45,0.185632242007253,1
327,994,45,0.143917192048373,1
328,990,45,0.125687003493207,1
328,991,45,0.178855609401482,1
328,992,45,0.192704250195661,1
328,993,45,0.193350458624147,1
328,994,45,0.145657506682901,1
329,990,45,0.151968493773665,1
329,991,45,0.173261539044222,1
329,992,45,0.145558263030938,1
329,993,45,0.1321328828101,1
330,991,45,0.123553577062961,1
332,993,45,0.120719332875386,1
332,994,45,0.115620833050296,1
333,993,45,0.117828394853641,1
333,994,45,0.117546397791074,1
336,995,45,0.119180108232227,1
337,994,45,0.14084584421241,1
337,995,45,0.166265880279769,1
337,996,45,0.142916240854439,1
338,994,45,0.149528009109453,1
338,995,45,0.179374663004972,1
338,996,45,0.181031361889062,1
338,997,45,0.158707993920122,1
339,995,45,0.129300275606935,1
339,996,45,0.168772515601757,1
339,997,45,0.17849839349412,1
340,996,45,0.120370890733387,1
340,997,45,0.142099161873404,1
343,998,45,0.128082559412642,1
317,1012,46,0.11762564432413,1
322,998,46,0.113845800214037,1
324,994,46,0.12385322764805,1
324,995,46,0.129645396672649,1
325,992,46,0.122763278675798,1
325,993,46,0.128430612918054,1
325,994,46,0.134852938502429,1
325,995,46,0.133086903191992,1
326,991,46,0.126955784179599,1
326,992,46,0.161078217800234,1
326,993,46,0.149644670746613,1
326,994,46,0.132457288368065,1
327,991,46,0.155527498087672,1
327,992,46,0.185909975844234,1
327,993,46,0.179655894571232,1
327,994,46,0.139311601183679,1
328,990,46,0.133931139626621,1
328,991,46,0.197404974585994,1
328,992,46,0.209842605479974,1
328,993,46,0.199355282522782,1
328,994,46,0.141195334495506,1
329,990,46,0.160887585666103,1
329,991,46,0.199670619893727,1
329,992,46,0.176112553489349,1
329,993,46,0.147353446085365,1
330,990,46,0.126421208666379,1
330,991,46,0.136882787393929,1
330,992,46,0.120775143444586,1
332,992,46,0.121994331747162,1
332,993,46,0.12522724641133,1
333,992,46,0.118182113031724,1
333,993,46,0.122034667514099,1
337,994,46,0.128089154457746,1
337,995,46,0.139081198572192,1
337,996,46,0.119577777675188,1
338,994,46,0.130929652161305,1
338,995,46,0.158643256486298,1
338,996,46,0.164358251706303,1
338,997,46,0.13401075124253,1
339,995,46,0.132362013520031,1
339,996,46,0.174254293539239,1
339,997,46,0.163464811524446,1
340,996,46,0.131508390922994,1
340,997,46,0.143934456934308,1
342,996,46,0.122832726856126,1
342,997,46,0.119068298663966,1
343,997,46,0.154406093105643,1
343,998,46,0.122468668589468,1
316,1011,47,0.12647720766544,1
316,1012,47,0.12235329063073,1
317,1011,47,0.132396319531443,1
317,1012,47,0.132661781873782,1
317,1013,47,0.119165151612079,1
318,1012,47,0.113969068673168,1
318,1013,47,0.12948944740965,1
323,994,47,0.116676393573072,1
323,995,47,0.117633369948396,1
324,993,47,0.118865289043397,1
324,994,47,0.149459561962757,1
324,995,47,0.136429955109412,1
325,992,47,0.122196528763959,1
325,993,47,0.151948979506274,1
325,994,47,0.162793271056636,1
325,995,47,0.130129143231095,1
326,991,47,0.116729601454829,1
326,992,47,0.148869752946784,1
326,993,47,0.157731844806529,1
326,994,47,0.141705579003035,1
327,991,47,0.155249564043965,1
327,992,47,0.178808772804371,1
327,993,47,0.169814120538016,1
327,994,47,0.131277670336118,1
328,990,47,0.137814726151587,1
328,991,47,0.212186696493857,1
328,992,47,0.225901870062725,1
328,993,47,0.193674004470875,1
328,994,47,0.12973391159945,1
329,990,47,0.155439925310172,1
329,991,47,0.222180215448818,1
329,992,47,0.217582267770325,1
329,993,47,0.167721618718019,1
330,990,47,0.117754506794734,1
330,991,47,0.146626471908076,1
330,992,47,0.142353565738326,1
330,993,47,0.116957212949013,1
332,991,47,0.129374399203168,1
332,992,47,0.130453513458461,1
332,993,47,0.125821448198417,1
333,991,47,0.122881200437647,1
333,992,47,0.123873083444562,1
333,993,47,0.121387622928108,1
338,995,47,0.127532956618076,1
338,996,47,0.131709539798695,1
339,995,47,0.126484285562061,1
339,996,47,0.155875104072167,1
339,997,47,0.130426450219799,1
340,996,47,0.128407730466913,1
340,997,47,0.126782310939606,1
342,996,47,0.132035888539592,1
342,997,47,0.123544520652808,1
343,996,47,0.168770631303155,1
343,997,47,0.150484585071324,1
344,997,47,0.169625985099532,1
344,998,47,0.120368123169816,1
316,1011,48,0.132801785259867,1
316,1012,48,0.123979982059593,1
317,1010,48,0.114232399402715,1
317,1011,48,0.136241572356737,1
317,1012,48,0.130112549626537,1
317,1013,48,0.116120254617733,1
318,1013,48,0.129920975343105,1
318,1014,48,0.114553837190383,1
323,994,48,0.131686268710967,1
323,995,48,0.119985528115667,1
324,993,48,0.142815760631519,1
324,994,48,0.175557368460177,1
324,995,48,0.136012347431875,1
325,992,48,0.126671973479628,1
325,993,48,0.191580006988864,1
325,994,48,0.196399830827672,1
325,995,48,0.125478576514159,1
326,992,48,0.144349874114721,1
326,993,48,0.17777740196489,1
326,994,48,0.155276415299035,1
327,991,48,0.155131076992535,1
327,992,48,0.177277709529529,1
327,993,48,0.162165281440252,1
327,994,48,0.121408373766456,1
328,990,48,0.13682155946625,1
328,991,48,0.220934788288217,1
328,992,48,0.240197360493362,1
328,993,48,0.183257672463491,1
328,994,48,0.113856163856345,1
329,990,48,0.14299418015534,1
329,991,48,0.226016506078889,1
329,992,48,0.241018655592518,1
329,993,48,0.174319890684301,1
330,991,48,0.146682035163085,1
330,992,48,0.151689440927663,1
330,993,48,0.118753585466932,1
331,991,48,0.116736973773107,1
331,992,48,0.116407751476843,1
332,990,48,0.118064108831811,1
332,991,48,0.136308311857825,1
332,992,48,0.132400559203296,1
332,993,48,0.119788689573017,1
333,991,48,0.129051948605002,1
333,992,48,0.124595841503731,1
333,993,48,0.114321644495224,1
339,995,48,0.115537605936445,1
339,996,48,0.121101268425025,1
342,996,48,0.134902354233251,1
342,997,48,0.120153536889715,1
343,995,48,0.135352018540745,1
343,996,48,0.168949357025499,1
343,997,48,0.143288849126001,1
344,996,48,0.171174442805837,1
344,997,48,0.161186258771292,1
316,1011,49,0.125352516937725,1
316,1012,49,0.119071078004403,1
317,1011,49,0.125940936283479,1
317,1012,49,0.119202425393788,1
318,997,49,0.122207893439899,1
318,1013,49,0.119765312493493,1
318,1014,49,0.114623909544622,1
319,997,49,0.126556171553705,1
323,994,49,0.14174478419081,1
323,995,49,0.119039716209556,1
324,993,49,0.16533822830143,1
324,994,49,0.190746416841333,1
324,995,49,0.131620070945727,1
325,992,49,0.132016821793119,1
325,993,49,0.225329891222268,1
325,994,49,0.221150987998996,1
325,995,49,0.124958498323304,1
326,992,49,0.142016405834203,1
326,993,49,0.193629252379092,1
326,994,49,0.165050437020664,1
327,991,49,0.153188435795681,1
327,992,49,0.172318883338269,1
327,993,49,0.15447010037376,1
328,990,49,0.12986461126119,1
328,991,49,0.217934513840126,1
328,992,49,0.237643641260072,1
328,993,49,0.169356165316677,1
329,990,49,0.131568994676762,1
329,991,49,0.215651332778533,1
329,992,49,0.239266940951452,1
329,993,49,0.170314166279365,1
330,991,49,0.148154720511881,1
330,992,49,0.156152095966574,1
330,993,49,0.121328856365476,1
331,990,49,0.117954501537541,1
331,991,49,0.128841119145237,1
331,992,49,0.12316236134271,1
332,990,49,0.125055280610219,1
332,991,49,0.135662492065925,1
332,992,49,0.12668953278722,1
333,990,49,0.118523724591293,1
333,991,49,0.129470934175891,1
333,992,49,0.118836082415075,1
342,996,49,0.130794783488909,1
343,995,49,0.131112947307757,1
343,996,49,0.158383600139024,1
343,997,49,0.131470351644979,1
344,996,49,0.160208861309876,1
344,997,49,0.144606751121558,1
345,997,49,0.132050668506747,1
315,1008,50,0.119173689840116,1
315,1009,50,0.118425352427434,1
316,1009,50,0.125559695568949,1
316,1010,50,0.113928061624855,1
318,996,50,0.124702139498582,1
318,997,50,0.131750841268664,1
319,996,50,0.127127726426977,1
319,997,50,0.135268956303021,1
320,995,50,0.117055208253153,1
320,996,50,0.117111325020876,1
320,997,50,0.114881493163435,1
322,994,50,0.121867989525938,1
323,993,50,0.135943806070249,1
323,994,50,0.14765310844732,1
324,992,50,0.119512027430865,1
324,993,50,0.197436489480102,1
324,994,50,0.198559825868198,1
324,995,50,0.123899675608574,1
325,992,50,0.140102700397747,1
325,993,50,0.24253980274597,1
325,994,50,0.225744201377253,1
325,995,50,0.121400188844406,1
326,992,50,0.140681733581093,1
326,993,50,0.193968155259421,1
326,994,50,0.162094561358368,1
327,991,50,0.148718278892963,1
327,992,50,0.166860011405659,1
327,993,50,0.146552996039487,1
328,990,50,0.124222950587378,1
328,991,50,0.205306933870258,1
328,992,50,0.223086374646235,1
328,993,50,0.154399262523213,1
329,990,50,0.122837602478757,1
329,991,50,0.193546755430949,1
329,992,50,0.220036684467321,1
329,993,50,0.158494832640838,1
330,990,50,0.121917075504504,1
330,991,50,0.147742494862224,1
330,992,50,0.159172461748503,1
330,993,50,0.123299161421172,1
331,990,50,0.138714396295695,1
331,991,50,0.136008896810061,1
331,992,50,0.123649099225186,1
332,990,50,0.128755395335739,1
332,991,50,0.129716364068725,1
332,992,50,0.114305074444398,1
333,990,50,0.120654878086352,1
333,991,50,0.126534513896655,1
334,990,50,0.117737606991652,1
334,991,50,0.115184712139,1
338,991,50,0.115935934883916,1
342,996,50,0.11783796944591,1
343,995,50,0.12236254724761,1
343,996,50,0.138834979629319,1
344,996,50,0.141201741110751,1
344,997,50,0.117831492169467,1
315,1000,51,0.131999321369859,1
315,1001,51,0.11814652334189,1
315,1008,51,0.130215173239116,1
315,1009,51,0.149163114685291,1
315,1010,51,0.122260936445529,1
316,999,51,0.130035199168949,1
316,1000,51,0.136211211595521,1
316,1001,51,0.118003929045229,1
316,1008,51,0.120850621380439,1
316,1009,51,0.142885291249911,1
316,1010,51,0.122007015432123,1
317,996,51,0.116544068703788,1
317,999,51,0.117415121062888,1
317,1000,51,0.115305366133822,1
318,995,51,0.121769947114333,1
318,996,51,0.143630919983354,1
318,997,51,0.134322284685674,1
319,995,51,0.127857185523047,1
319,996,51,0.139113867599193,1
319,997,51,0.137062879232759,1
320,994,51,0.135325838567051,1
320,995,51,0.134754648776633,1
320,996,51,0.130343128891018,1
320,997,51,0.125279653466181,1
321,993,51,0.117308187117258,1
321,994,51,0.148424681617131,1
321,995,51,0.128586232428798,1
322,993,51,0.128922897704538,1
322,994,51,0.139979278839355,1
323,993,51,0.156051227107067,1
323,994,51,0.143676555340107,1
324,992,51,0.141398638537732,1
324,993,51,0.226779011061681,1
324,994,51,0.191489325118671,1
325,992,51,0.147872417250791,1
325,993,51,0.240747905437228,1
325,994,51,0.205784014722402,1
326,992,51,0.146925180343864,1
326,993,51,0.186886195619025,1
326,994,51,0.150343933957595,1
327,991,51,0.147481024877546,1
327,992,51,0.170994480512537,1
327,993,51,0.148576614968736,1
328,990,51,0.122275928396276,1
328,991,51,0.187080572796626,1
328,992,51,0.20547685049664,1
328,993,51,0.146548096863123,1
329,990,51,0.12265514348981,1
329,991,51,0.17545266034227,1
329,992,51,0.200579652646512,1
329,993,51,0.148245897010457,1
330,990,51,0.131346930086586,1
330,991,51,0.151535434847597,1
330,992,51,0.16450838319737,1
330,993,51,0.125299250171636,1
331,989,51,0.1258286791943,1
331,990,51,0.152951402808491,1
331,991,51,0.142859570574002,1
331,992,51,0.125998183630363,1
332,990,51,0.132670649854075,1
332,991,51,0.129694364882553,1
333,990,51,0.124778971774055,1
333,991,51,0.132556520243161,1
334,990,51,0.120461337066254,1
334,991,51,0.11646722465145,1
336,990,51,0.121238021396022,1
337,990,51,0.122500407244035,1
337,991,51,0.120976845833001,1
337,992,51,0.11542206310158,1
338,991,51,0.117729151201678,1
338,992,51,0.130289438157744,1
338,993,51,0.115665820679405,1
339,993,51,0.114994821947443,1
340,994,51,0.120771162863791,1
343,995,51,0.114912466321696,1
343,996,51,0.117977089567025,1
344,995,51,0.13307850628635,1
344,996,51,0.120766616993415,1
350,1009,51,0.114019626760017,1
315,999,52,0.130349029101013,1
315,1000,52,0.151905310886187,1
315,1001,52,0.123429366454529,1
315,1008,52,0.131768541898651,1
315,1009,52,0.169221390859211,1
315,1010,52,0.141567459915551,1
316,999,52,0.153300586893064,1
316,1000,52,0.153355832172684,1
316,1001,52,0.118240008106253,1
316,1008,52,0.123971750030078,1
316,1009,52,0.150629098997186,1
316,1010,52,0.123652125879814,1
317,996,52,0.125282538798415,1
317,999,52,0.125146233348335,1
317,1000,52,0.117543488905109,1
318,995,52,0.147139978607558,1
318,996,52,0.158286464546121,1
318,997,52,0.133040890975519,1
319,994,52,0.125136258342614,1
319,995,52,0.146850585672981,1
319,996,52,0.148431712406288,1
319,997,52,0.136563575433985,1
320,993,52,0.133782032722918,1
320,994,52,0.168710227756114,1
320,995,52,0.149461210724033,1
320,996,52,0.13881001267285,1
320,997,52,0.130740468581723,1
321,993,52,0.191145581946309,1
321,994,52,0.211446096482307,1
321,995,52,0.150706579000302,1
321,996,52,0.120938429695265,1
322,993,52,0.174419840948239,1
322,994,52,0.171169578960073,1
322,995,52,0.120229144371096,1
323,992,52,0.119406165180065,1
323,993,52,0.172078788365851,1
323,994,52,0.139856587446671,1
324,992,52,0.156685010941651,1
324,993,52,0.233734522489057,1
324,994,52,0.17045098991156,1
325,992,52,0.147762633303527,1
325,993,52,0.21583738371169,1
325,994,52,0.167007057357767,1
326,992,52,0.147130133147366,1
326,993,52,0.166438270048066,1
326,994,52,0.126436860121637,1
327,991,52,0.136645836844802,1
327,992,52,0.164457872217986,1
327,993,52,0.142041266798875,1
328,990,52,0.113973119915161,1
328,991,52,0.154315328797387,1
328,992,52,0.171538689502356,1
328,993,52,0.129987349761339,1
329,990,52,0.118059998705487,1
329,991,52,0.148597695559339,1
329,992,52,0.164919914011918,1
329,993,52,0.125764424611992,1
330,990,52,0.134595884842598,1
330,991,52,0.14879758431035,1
330,992,52,0.154966671939562,1
330,993,52,0.115073432529721,1
331,989,52,0.132510449142357,1
331,990,52,0.15669313697937,1
331,991,52,0.14449735581088,1
331,992,52,0.121917358149295,1
332,989,52,0.125823591588076,1
332,990,52,0.142092131084247,1
332,991,52,0.132092912126017,1
333,989,52,0.119171487566126,1
333,990,52,0.135135960152361,1
333,991,52,0.138079352336422,1
334,989,52,0.116714491735419,1
334,990,52,0.122397359664271,1
334,991,52,0.117775587385337,1
336,990,52,0.134863938095515,1
337,990,52,0.139978878425902,1
337,991,52,0.13468949915249,1
337,992,52,0.124922826195406,1
338,991,52,0.124609667544718,1
338,992,52,0.155125023683278,1
338,993,52,0.129254722688246,1
339,992,52,0.121514448000849,1
339,993,52,0.130309929905034,1
340,994,52,0.118832278487274,1
344,995,52,0.124949936541534,1
350,1009,52,0.133018797574418,1
350,1010,52,0.123883082004016,1
314,1010,53,0.124826609198072,1
315,1000,53,0.159510504917595,1
315,1001,53,0.123088214192744,1
315,1008,53,0.12250064278136,1
315,1009,53,0.164743920522546,1
315,1010,53,0.147010904153362,1
315,1011,53,0.120647046470289,1
316,999,53,0.158190259325653,1
316,1000,53,0.154109045207998,1
316,1001,53,0.114805226177543,1
316,1008,53,0.122331833180407,1
316,1009,53,0.143988559857901,1
316,1010,53,0.118500889247617,1
317,996,53,0.127234495496479,1
317,997,53,0.114275114096636,1
317,998,53,0.115595724771432,1
317,999,53,0.122360333196753,1
318,995,53,0.164152710059488,1
318,996,53,0.160433917224081,1
318,997,53,0.130600971600888,1
319,994,53,0.132562585329284,1
319,995,53,0.158970464938432,1
319,996,53,0.14968440589337,1
319,997,53,0.132728450713673,1
320,993,53,0.157799656002447,1
320,994,53,0.183866136035619,1
320,995,53,0.15933653704922,1
320,996,53,0.143456963891845,1
320,997,53,0.129638542536486,1
321,992,53,0.118698069319389,1
321,993,53,0.247403907601911,1
321,994,53,0.257632539914862,1
321,995,53,0.17801896904559,1
321,996,53,0.140036620401169,1
322,992,53,0.115799393896512,1
322,993,53,0.202393831786214,1
322,994,53,0.196610471857576,1
322,995,53,0.14364365077578,1
323,992,53,0.125916935030044,1
323,993,53,0.167077471241128,1
323,994,53,0.135305111282436,1
324,992,53,0.160393875878802,1
324,993,53,0.207679995975138,1
324,994,53,0.143028898357071,1
325,992,53,0.14774521531833,1
325,993,53,0.183009639883215,1
325,994,53,0.132205734504777,1
326,992,53,0.142958048729658,1
326,993,53,0.145818625990187,1
327,991,53,0.119639606223047,1
327,992,53,0.145785591880331,1
327,993,53,0.127954968843594,1
328,991,53,0.121699062156322,1
328,992,53,0.133572852024429,1
329,991,53,0.127007673052335,1
329,992,53,0.129934730722895,1
330,990,53,0.129964679293791,1
330,991,53,0.142743085589836,1
330,992,53,0.135359225982895,1
331,989,53,0.123737661259452,1
331,990,53,0.148233837499408,1
331,991,53,0.14284786436894,1
331,992,53,0.114098673086346,1
332,989,53,0.136361460855251,1
332,990,53,0.148066829758992,1
332,991,53,0.13388814228791,1
333,989,53,0.138955233210687,1
333,990,53,0.144707690642262,1
333,991,53,0.137371232922013,1
334,989,53,0.118947326693756,1
334,990,53,0.120592672678773,1
334,991,53,0.117799918391028,1
336,990,53,0.141956720676003,1
336,991,53,0.126431701854216,1
337,989,53,0.114960233291241,1
337,990,53,0.153609246780841,1
337,991,53,0.155970426027666,1
337,992,53,0.138341564263674,1
338,990,53,0.114035596190664,1
338,991,53,0.137960888838725,1
338,992,53,0.171087871061969,1
338,993,53,0.130404604132889,1
339,992,53,0.133929950163128,1
339,993,53,0.132498648722365,1
344,994,53,0.1158343711893,1
350,1009,53,0.131080148735226,1
350,1010,53,0.124729932902953,1
314,1010,54,0.127340404854745,1
314,1011,54,0.148599226551953,1
315,1000,54,0.164003744478181,1
315,1008,54,0.115077165796325,1
315,1009,54,0.144300411276434,1
315,1010,54,0.139812259322073,1
315,1011,54,0.127361591437144,1
315,1012,54,0.116612127213898,1
316,999,54,0.153601438718511,1
316,1000,54,0.146582709073058,1
316,1001,54,0.115456934402572,1
316,1008,54,0.126605069102412,1
316,1009,54,0.131129164052595,1
317,996,54,0.124378428775727,1
317,997,54,0.115359586826077,1
317,998,54,0.116571438140974,1
317,999,54,0.116192717675823,1
317,1003,54,0.114536843172371,1
318,995,54,0.164021386223836,1
318,996,54,0.149579403353807,1
318,997,54,0.123501652859626,1
318,1002,54,0.119574185730979,1
318,1003,54,0.124667963032699,1
319,994,54,0.136574563250204,1
319,995,54,0.158954601499581,1
319,996,54,0.140641762897011,1
319,997,54,0.121499550265031,1
320,993,54,0.165830842840169,1
320,994,54,0.184571852969311,1
320,995,54,0.162334974306175,1
320,996,54,0.136662925077744,1
320,997,54,0.11855222460764,1
321,992,54,0.133898941674269,1
321,993,54,0.258468226344586,1
321,994,54,0.274424207810248,1
321,995,54,0.202713785688733,1
321,996,54,0.150060700324071,1
322,992,54,0.1272897054455,1
322,993,54,0.20885685822038,1
322,994,54,0.220627341417665,1
322,995,54,0.176800134049002,1
322,996,54,0.130564663522212,1
323,992,54,0.128784531302863,1
323,993,54,0.151054326307192,1
323,994,54,0.133885198071345,1
324,992,54,0.149471091514824,1
324,993,54,0.157994633800228,1
325,992,54,0.143520099671859,1
325,993,54,0.144030615047311,1
326,992,54,0.132538725398244,1
326,993,54,0.121973345371489,1
327,992,54,0.118240620503298,1
330,990,54,0.120085513710204,1
330,991,54,0.131542296520954,1
331,990,54,0.136114865052658,1
331,991,54,0.137499718532896,1
332,989,54,0.140165329772511,1
332,990,54,0.150485327013898,1
332,991,54,0.132479205116172,1
333,989,54,0.153652632756138,1
333,990,54,0.152502986848821,1
333,991,54,0.130202089140702,1
334,989,54,0.118329665389081,1
334,990,54,0.122582492001859,1
334,991,54,0.115667104357827,1
336,990,54,0.13881347507153,1
336,991,54,0.136262794269735,1
337,989,54,0.118823563606242,1
337,990,54,0.159435816031782,1
337,991,54,0.176347054450294,1
337,992,54,0.147846143062168,1
338,990,54,0.12694447838799,1
338,991,54,0.157870917820179,1
338,992,54,0.173120357971511,1
338,993,54,0.119938632634224,1
339,992,54,0.13832290970752,1
339,993,54,0.121767426864954,1
314,1011,55,0.141213682853137,1
315,1009,55,0.114249134329669,1
315,1010,55,0.121558787902313,1
315,1011,55,0.125655629921494,1
315,1012,55,0.115259118380023,1
316,999,55,0.1335833334354,1
316,1000,55,0.12424724626247,1
316,1008,55,0.120534059215403,1
317,1007,55,0.114422854883852,1
317,1008,55,0.117271431517664,1
318,996,55,0.130480458928462,1
318,1002,55,0.122112642145598,1
318,1003,55,0.122352854886679,1
319,994,55,0.130706433438235,1
319,995,55,0.143412294238126,1
319,996,55,0.123586752495212,1
320,993,55,0.152323566291368,1
320,994,55,0.16925422476234,1
320,995,55,0.153760532404801,1
320,996,55,0.123295404600835,1
321,992,55,0.139680016890853,1
321,993,55,0.217333257710149,1
321,994,55,0.253106831534001,1
321,995,55,0.210853037051246,1
321,996,55,0.150256961800274,1
322,992,55,0.139735379939135,1
322,993,55,0.195774620551725,1
322,994,55,0.236664748136641,1
322,995,55,0.205392528134227,1
322,996,55,0.144468855794534,1
323,992,55,0.127506882636179,1
323,993,55,0.137649732255301,1
323,994,55,0.140850390082786,1
323,995,55,0.119288137426419,1
324,992,55,0.127976791376771,1
324,993,55,0.117319869768586,1
325,992,55,0.128322277525339,1
326,992,55,0.118520085539619,1
330,991,55,0.123292001086487,1
331,990,55,0.123861648107425,1
331,991,55,0.128912463401033,1
332,989,55,0.132295427118204,1
332,990,55,0.144106163644362,1
332,991,55,0.125618933206231,1
333,989,55,0.147000917370774,1
333,990,55,0.149417777641271,1
333,991,55,0.119048843280907,1
334,989,55,0.114104408420214,1
334,990,55,0.125615965435934,1
336,990,55,0.122886452919999,1
336,991,55,0.134527755671291,1
337,990,55,0.148095706635058,1
337,991,55,0.178856351344056,1
337,992,55,0.144020380950533,1
338,990,55,0.140728051996089,1
338,991,55,0.175056545445655,1
338,992,55,0.15882711692233,1
339,991,55,0.131971916602074,1
339,992,55,0.134343094408353,1
315,1002,56,0.123906317761144,1
315,1011,56,0.118457515049186,1
316,999,56,0.116528158157473,1
318,1002,56,0.11701804046324,1
319,995,56,0.117871038886364,1
320,994,56,0.150119113580715,1
320,995,56,0.138402627315226,1
321,993,56,0.175038927253732,1
321,994,56,0.216207318634611,1
321,995,56,0.198613858130593,1
321,996,56,0.142770455027021,1
322,992,56,0.147087889528095,1
322,993,56,0.177999101472212,1
322,994,56,0.229875078539921,1
322,995,56,0.211398871248609,1
322,996,56,0.147077914522374,1
323,992,56,0.123945204973531,1
323,993,56,0.130362878695734,1
323,994,56,0.14556773163141,1
323,995,56,0.126977147414992,1
331,990,56,0.119190295221541,1
331,991,56,0.12096762454672,1
332,989,56,0.119223988835908,1
332,990,56,0.136642715975244,1
332,991,56,0.11979746333838,1
333,989,56,0.131308761263042,1
333,990,56,0.143964499720135,1
334,989,56,0.117434458677285,1
334,990,56,0.136510061353705,1
335,990,56,0.125315949767991,1
335,991,56,0.115891877627242,1
336,990,56,0.117589265584256,1
336,991,56,0.132187468585209,1
337,990,56,0.134140897391556,1
337,991,56,0.16773149950881,1
337,992,56,0.132295780424191,1
338,990,56,0.14833962908901,1
338,991,56,0.183664115671815,1
338,992,56,0.143360240489262,1
339,990,56,0.144585234786903,1
339,991,56,0.170939258786649,1
339,992,56,0.134278345197662,1
340,991,56,0.12234790860285,1
340,992,56,0.115014665967089,1
343,993,56,0.118073812969608,1
344,993,56,0.114881139857447,1
319,1001,57,0.115979556396539,1
320,994,57,0.124625460322371,1
320,995,57,0.116260999946392,1
321,993,57,0.149410452430458,1
321,994,57,0.169674906201971,1
321,995,57,0.165568784012179,1
321,996,57,0.128776558364406,1
322,992,57,0.148678049117823,1
322,993,57,0.160388894264374,1
322,994,57,0.192339567755091,1
322,995,57,0.187246567726544,1
322,996,57,0.135599568269504,1
323,992,57,0.122256567228147,1
323,993,57,0.128565222499392,1
323,994,57,0.139530803995354,1
323,995,57,0.126189369277209,1
332,990,57,0.118933524206501,1
333,990,57,0.129516239780389,1
334,989,57,0.124711184131869,1
334,990,57,0.144330642492121,1
335,990,57,0.134795278965226,1
335,991,57,0.11586093979958,1
336,991,57,0.123153363816888,1
337,990,57,0.115860880915249,1
337,991,57,0.14764127269673,1
337,992,57,0.116563347433854,1
338,990,57,0.139770922521504,1
338,991,57,0.181078857990684,1
338,992,57,0.133590411332021,1
339,990,57,0.157680144363653,1
339,991,57,0.202244524675785,1
339,992,57,0.143035587617106,1
340,990,57,0.116006949387457,1
340,991,57,0.144421583453371,1
340,992,57,0.119945792968909,1
342,993,57,0.143988995601953,1
343,993,57,0.153817190908372,1
343,994,57,0.132852932190029,1
344,993,57,0.128257045463132,1
344,994,57,0.121332165664895,1
319,1019,58,0.113941569690454,1
321,993,58,0.134443951490994,1
321,994,58,0.128365533955108,1
321,995,58,0.128841166252702,1
321,996,58,0.114335399875014,1
322,992,58,0.143784443211904,1
322,993,58,0.14266491075161,1
322,994,58,0.146612398552896,1
322,995,58,0.149568545083116,1
322,996,58,0.118263667830567,1
323,992,58,0.117983543289735,1
323,993,58,0.122255377764655,1
323,994,58,0.122572834971527,1
323,995,58,0.11571938186715,1
333,990,58,0.114486367523586,1
334,989,58,0.129031527518909,1
334,990,58,0.144230539128921,1
335,989,58,0.11674171985021,1
335,990,58,0.131934748812162,1
337,991,58,0.126670430710148,1
338,990,58,0.126934362059874,1
338,991,58,0.175733562156275,1
338,992,58,0.133817822619478,1
339,990,58,0.155889483625869,1
339,991,58,0.220751234050708,1
339,992,58,0.161614760050119,1
340,990,58,0.120468426739742,1
340,991,58,0.161945937306182,1
340,992,58,0.132915361358067,1
341,992,58,0.115296792575185,1
341,993,58,0.117776753295097,1
342,992,58,0.131285690382041,1
342,993,58,0.165903376559457,1
342,994,58,0.136356844323678,1
343,992,58,0.136083526811543,1
343,993,58,0.180313844535379,1
343,994,58,0.159191976015894,1
344,993,58,0.133829752584999,1
344,994,58,0.127881752066063,1
346,996,58,0.129681822519987,1
346,997,58,0.12622868045678,1
347,996,58,0.135774702047639,1
347,997,58,0.142411590358383,1
319,1019,59,0.115922627025044,1
322,993,59,0.118476193159073,1
322,995,59,0.118111451834172,1
334,989,59,0.123157002868562,1
334,990,59,0.134416652715006,1
335,990,59,0.117853691562365,1
337,991,59,0.115209714426068,1
338,990,59,0.117143110782908,1
338,991,59,0.167458370426536,1
338,992,59,0.14191842230693,1
339,990,59,0.139885134570482,1
339,991,59,0.20554084598789,1
339,992,59,0.170594655903051,1
340,990,59,0.114702732110493,1
340,991,59,0.156516012910837,1
340,992,59,0.138889859826085,1
341,991,59,0.123890242338701,1
341,992,59,0.125147081282706,1
341,993,59,0.121877811432398,1
342,991,59,0.137920070220272,1
342,992,59,0.155856296416752,1
342,993,59,0.176888048355624,1
342,994,59,0.15831007716297,1
343,992,59,0.160627905765096,1
343,993,59,0.190907595032951,1
343,994,59,0.172140157615925,1
344,992,59,0.114388513541842,1
344,993,59,0.13566660219225,1
344,994,59,0.126221202146706,1
346,996,59,0.140083986957262,1
346,997,59,0.136294262056378,1
347,996,59,0.146038405868309,1
347,997,59,0.15630947023039,1
338,991,60,0.142189054693557,1
338,992,60,0.139140412655741,1
339,990,60,0.119894092526033,1
339,991,60,0.16584950917319,1
339,992,60,0.156648502656249,1
340,991,60,0.140748967710565,1
340,992,60,0.134160446989546,1
341,991,60,0.146919551001792,1
341,992,60,0.145056815842504,1
341,993,60,0.125842681888282,1
342,991,60,0.185531585131339,1
342,992,60,0.196232940855918,1
342,993,60,0.181291630633382,1
342,994,60,0.158034180517125,1
343,992,60,0.183712436154075,1
343,993,60,0.186181244181639,1
343,994,60,0.161386983679807,1
344,993,60,0.127159535742742,1
344,994,60,0.114902526646573,1
346,996,60,0.147286918567869,1
346,997,60,0.14336415040886,1
347,996,60,0.149101356798629,1
347,997,60,0.159878108020998,1
347,998,60,0.114861684474388,1
348,997,60,0.118680710218523,1
328,993,61,0.122111805988094,1
329,993,61,0.11621350384477,1
338,991,61,0.118453287154199,1
338,992,61,0.133378203978904,1
339,991,61,0.135994340603366,1
339,992,61,0.135740148722036,1
340,990,61,0.117668088150127,1
340,991,61,0.141320510806971,1
340,992,61,0.130191277977477,1
341,991,61,0.171507457253037,1
341,992,61,0.166125747348156,1
341,993,61,0.13074441383192,1
342,991,61,0.206322547262684,1
342,992,61,0.222436644934737,1
342,993,61,0.1828512528089,1
342,994,61,0.140491183885026,1
343,992,61,0.18701923887715,1
343,993,61,0.175382434888768,1
343,994,61,0.136778797664864,1
344,993,61,0.113840135541367,1
346,995,61,0.119040222614805,1
346,996,61,0.147495863729033,1
346,997,61,0.141343829002163,1
347,996,61,0.1466642638719,1
347,997,61,0.150904135931794,1
347,998,61,0.116619805730698,1
348,996,61,0.117740657200013,1
348,997,61,0.128816905908209,1
348,998,61,0.128924770226273,1
349,998,61,0.118937999415679,1
328,992,62,0.118172467778258,1
328,993,62,0.138272822695321,1
329,992,62,0.11838935054728,1
329,993,62,0.132211210747587,1
337,992,62,0.119773838944665,1
337,993,62,0.113828158468382,1
338,992,62,0.130660244568768,1
338,993,62,0.125442833725063,1
339,991,62,0.127732715823558,1
339,992,62,0.127357528418285,1
340,990,62,0.134294526611902,1
340,991,62,0.159753237908055,1
340,992,62,0.135823128521695,1
341,991,62,0.193368029708605,1
341,992,62,0.178989547701443,1
341,993,62,0.13113374525357,1
342,992,62,0.22015454734484,1
342,993,62,0.177263812827344,1
342,994,62,0.117132723586868,1
343,992,62,0.175879783727744,1
343,993,62,0.164512587538625,1
346,995,62,0.120944636103783,1
346,996,62,0.132642644466112,1
346,997,62,0.12236629229108,1
347,996,62,0.137213010723826,1
347,997,62,0.133809896788486,1
348,997,62,0.137133834851968,1
348,998,62,0.141419330491748,1
348,999,62,0.11476969537204,1
349,998,62,0.127933617385067,1
328,993,63,0.128758104014979,1
329,992,63,0.117238762490662,1
329,993,63,0.131407993138138,1
337,992,63,0.12608778202886,1
337,993,63,0.130979197437655,1
338,992,63,0.138490105877796,1
338,993,63,0.139702357606146,1
339,990,63,0.115915831773213,1
339,991,63,0.151367449627281,1
339,992,63,0.14972224496466,1
339,993,63,0.128104393722685,1
340,991,63,0.20848235387335,1
340,992,63,0.168791134827312,1
340,993,63,0.119333831667503,1
341,991,63,0.225905473783801,1
341,992,63,0.188928374889498,1
341,993,63,0.133840799285549,1
342,992,63,0.195078772631957,1
342,993,63,0.163196181205082,1
343,993,63,0.157933888724065,1
346,995,63,0.120433802752941,1
347,996,63,0.124760529201494,1
347,997,63,0.116286355539447,1
348,997,63,0.138213137537122,1
348,998,63,0.13659749280881,1
349,998,63,0.125702148543216,1
321,1004,64,0.115066460624896,1
329,993,64,0.1147515943286,1
336,993,64,0.120197523485191,1
337,992,64,0.120439208334554,1
337,993,64,0.134747335342687,1
338,992,64,0.137057803403401,1
338,993,64,0.141526087784384,1
339,991,64,0.163451091475254,1
339,992,64,0.169033255420727,1
339,993,64,0.143546338529883,1
340,991,64,0.234437248098719,1
340,992,64,0.197714246870816,1
340,993,64,0.139392920445196,1
341,992,64,0.189631312482753,1
341,993,64,0.135627455888805,1
342,992,64,0.162185667195746,1
342,993,64,0.137739613298588,1
343,993,64,0.142072711031786,1
347,996,64,0.117915944077409,1
348,997,64,0.132605782874722,1
348,998,64,0.122995636247084,1
321,1004,65,0.142739305215767,1
321,1005,65,0.115182910278463,1
322,1018,65,0.122675128831851,1
336,993,65,0.130081576468276,1
336,994,65,0.115389464735776,1
337,993,65,0.125527120756878,1
338,992,65,0.126942794296115,1
338,993,65,0.129542843721267,1
339,991,65,0.159371808763666,1
339,992,65,0.172145186337818,1
339,993,65,0.148657416048138,1
340,991,65,0.229808539245559,1
340,992,65,0.213578086134869,1
340,993,65,0.16422022683375,1
341,992,65,0.208552072921602,1
341,993,65,0.162864415105706,1
342,993,65,0.134615246010728,1
343,994,65,0.116278877229373,1
321,1004,66,0.140194901483687,1
321,1005,66,0.115754771350257,1
322,1018,66,0.139637113767072,1
323,1018,66,0.118580783508317,1
336,993,66,0.122018297669999,1
336,994,66,0.115507327613294,1
339,991,66,0.135744093972232,1
339,992,66,0.150058333173953,1
339,993,66,0.132994360576931,1
340,992,66,0.204100205492184,1
340,993,66,0.167910920066263,1
341,992,66,0.222281190300121,1
341,993,66,0.178327676040832,1
342,993,66,0.132944509102057,1
343,994,66,0.115427704220518,1
344,995,66,0.118603465752732,1
321,1004,67,0.121145502334693,1
322,1018,67,0.136026703431845,1
323,1018,67,0.122552979175014,1
339,992,67,0.13146625329552,1
339,993,67,0.119962716325723,1
340,992,67,0.19501863995284,1
340,993,67,0.164680278337284,1
341,993,67,0.185859158666327,1
340,992,68,0.182797668067423,1
340,993,68,0.154219582874703,1
341,993,68,0.175683581135872,1
340,993,69,0.141244067168085,1
341,993,69,0.155643205798665,1
