x,y,z,signal,mito.p
462,58,1,0.128218440895536,1
462,59,1,0.130803180394551,1
464,60,1,0.114647675260733,1
464,61,1,0.126135678543935,1
465,61,1,0.123660628777253,1
466,61,1,0.117192915150317,1
469,92,1,0.117083119426186,1
469,93,1,0.114304568039149,1
470,95,1,0.114641339306686,1
471,94,1,0.120920776172743,1
471,95,1,0.1296650993699,1
471,96,1,0.12007224118193,1
472,94,1,0.127950846940403,1
472,95,1,0.140926268432091,1
472,96,1,0.132483809870879,1
473,94,1,0.117146714503983,1
473,95,1,0.127880327065245,1
473,96,1,0.124766888709273,1
474,98,1,0.114627560373163,1
474,99,1,0.124341602514936,1
474,100,1,0.118685067659039,1
475,99,1,0.11646615295662,1
461,58,2,0.159895325799468,1
461,59,2,0.141686052958777,1
462,58,2,0.179746317350367,1
462,59,2,0.176037511297548,1
462,60,2,0.129066599026628,1
463,58,2,0.13617630496393,1
463,59,2,0.155968895035052,1
463,60,2,0.163695791202379,1
463,61,2,0.1674969514404,1
463,62,2,0.128809875119052,1
464,59,2,0.148869658731854,1
464,60,2,0.19288232819036,1
464,61,2,0.216138376859532,1
464,62,2,0.163091732178233,1
465,59,2,0.148733412166106,1
465,60,2,0.182005179183136,1
465,61,2,0.205616712560329,1
465,62,2,0.16440888045435,1
466,59,2,0.147727962209261,1
466,60,2,0.173087241423591,1
466,61,2,0.208915789659139,1
466,62,2,0.18811426367876,1
467,60,2,0.152850062874334,1
467,61,2,0.180860138030525,1
467,62,2,0.174127350697836,1
467,63,2,0.114413939796094,1
468,61,2,0.134899833983872,1
468,62,2,0.130984073060287,1
468,92,2,0.134905687086402,1
468,93,2,0.133834510438967,1
468,94,2,0.118807770828589,1
469,61,2,0.11557731752947,1
469,91,2,0.141183746059107,1
469,92,2,0.163031104870733,1
469,93,2,0.15271928077453,1
469,94,2,0.134899221586826,1
469,95,2,0.118346117671244,1
470,91,2,0.127864345857732,1
470,92,2,0.145765912736813,1
470,93,2,0.144254952572675,1
470,94,2,0.147255156359569,1
470,95,2,0.14652383651863,1
470,96,2,0.120552784432754,1
471,92,2,0.118535277697093,1
471,93,2,0.138388777720506,1
471,94,2,0.170164882722668,1
471,95,2,0.188900769914987,1
471,96,2,0.156062886204664,1
471,97,2,0.115327659741649,1
472,71,2,0.114403305285863,1
472,93,2,0.138874125932763,1
472,94,2,0.178924657168357,1
472,95,2,0.21001789235737,1
472,96,2,0.184040798739103,1
472,97,2,0.136933074612854,1
472,98,2,0.120085136850483,1
472,99,2,0.11458768390401,1
473,93,2,0.125879472818475,1
473,94,2,0.151368803966901,1
473,95,2,0.17913247175036,1
473,96,2,0.174552872429499,1
473,97,2,0.152895568685558,1
473,98,2,0.164770182934303,1
473,99,2,0.180432590677866,1
473,100,2,0.165779955001065,1
474,93,2,0.113760818347114,1
474,94,2,0.125116767628956,1
474,95,2,0.137677619874602,1
474,96,2,0.144822927278605,1
474,97,2,0.155997194844672,1
474,98,2,0.200227123931921,1
475,94,2,0.113852536581538,1
475,95,2,0.114795039188229,1
475,96,2,0.121745286356387,1
475,97,2,0.140030684860575,1
475,98,2,0.176522329550824,1
475,99,2,0.20424228160673,1
475,100,2,0.193103697945427,1
476,88,2,0.114236921719358,1
476,97,2,0.119979415922078,1
476,98,2,0.132643833929604,1
476,99,2,0.139676377839179,1
477,85,2,0.126180654396177,1
477,86,2,0.154279974644878,1
477,87,2,0.161466053559869,1
477,88,2,0.162796132835137,1
477,89,2,0.133402217009205,1
478,85,2,0.150523778482233,1
478,86,2,0.177958706820944,1
478,87,2,0.172490319180398,1
478,88,2,0.160737289298908,1
478,89,2,0.127587130202866,1
479,85,2,0.138462218258495,1
479,86,2,0.170705735305604,1
479,87,2,0.164596580148782,1
479,88,2,0.138706623563964,1
480,85,2,0.123785016038679,1
480,86,2,0.170120637036134,1
480,87,2,0.174947432779767,1
480,88,2,0.143386691330879,1
480,89,2,0.11679818992392,1
480,94,2,0.116842812470175,1
481,86,2,0.156575356539915,1
481,87,2,0.176826549560021,1
481,88,2,0.15757860422277,1
481,89,2,0.138969341896466,1
481,90,2,0.124384611630513,1
481,91,2,0.123774263759784,1
481,92,2,0.134389624806942,1
481,93,2,0.147531241435274,1
481,94,2,0.158308981914408,1
481,95,2,0.15150492098712,1
481,96,2,0.132834748708525,1
481,97,2,0.116871265379056,1
482,86,2,0.132631951071549,1
482,87,2,0.158025336090565,1
482,88,2,0.148929296782588,1
482,89,2,0.134995238377434,1
482,90,2,0.123488380331352,1
482,91,2,0.126212239951483,1
482,92,2,0.142351787431521,1
482,93,2,0.170961787931802,1
482,96,2,0.176748857573312,1
483,86,2,0.116570990620056,1
483,87,2,0.128742381898523,1
483,88,2,0.118166037609281,1
483,92,2,0.123421958805652,1
483,93,2,0.155351174846046,1
484,85,2,0.11724547530443,1
484,93,2,0.127220728339823,1
484,94,2,0.159656208306949,1
485,84,2,0.133229933232706,1
485,85,2,0.139030499162947,1
486,85,2,0.143762467579465,1
461,59,3,0.13922081332169,1
462,59,3,0.174611191471212,1
462,60,3,0.121334862567268,1
463,59,3,0.156452005642721,1
463,60,3,0.159900837372877,1
463,61,3,0.168885773724568,1
463,62,3,0.131060693352166,1
464,59,3,0.154633645715496,1
464,60,3,0.196285135927177,1
464,61,3,0.22372232542421,1
464,62,3,0.164356826705486,1
465,60,3,0.188382941105588,1
465,61,3,0.212533972726097,1
465,62,3,0.167255042830578,1
466,60,3,0.185388814181684,1
466,61,3,0.224427736159379,1
466,62,3,0.203274694274907,1
466,63,3,0.115482207557564,1
467,61,3,0.196434513698804,1
467,62,3,0.188572548652354,1
467,63,3,0.118171914265544,1
468,62,3,0.142966869602486,1
468,63,3,0.117785350407465,1
468,91,3,0.121189842236157,1
468,92,3,0.148457115106808,1
468,93,3,0.150749152371828,1
468,94,3,0.134054325647688,1
469,91,3,0.160623065473064,1
469,92,3,0.182628834912737,1
469,93,3,0.170245259834885,1
469,94,3,0.148405497101996,1
469,95,3,0.122847836575536,1
470,91,3,0.14866889849274,1
470,92,3,0.16528059231796,1
470,93,3,0.159156786739512,1
470,94,3,0.164102316848767,1
470,95,3,0.160782606680272,1
470,96,3,0.129120560627826,1
471,92,3,0.130752492762174,1
471,93,3,0.152140247591183,1
471,94,3,0.197781822529409,1
471,95,3,0.222259426651274,1
471,96,3,0.173668924401846,1
471,97,3,0.127656861027985,1
472,71,3,0.144425870232689,1
472,72,3,0.119273227913736,1
472,92,3,0.122328559211587,1
472,93,3,0.15359609202123,1
472,94,3,0.205174444124846,1
472,95,3,0.245088858340221,1
472,96,3,0.205351803730704,1
472,97,3,0.148438507658119,1
472,98,3,0.133789723016585,1
472,99,3,0.135352112755675,1
472,100,3,0.123615641148145,1
473,92,3,0.115471820361523,1
473,93,3,0.138223183204041,1
473,94,3,0.167774037549737,1
473,95,3,0.205287926008116,1
473,96,3,0.197841295704016,1
473,97,3,0.16857195556937,1
473,98,3,0.188100555406434,1
474,93,3,0.119474600549895,1
474,94,3,0.134435071733835,1
474,95,3,0.154064469769208,1
474,96,3,0.164614622307891,1
474,97,3,0.176039218943155,1
475,79,3,0.125011305791608,1
475,80,3,0.114377396180093,1
475,94,3,0.121430902911609,1
475,95,3,0.127386947030199,1
475,96,3,0.140063836739093,1
475,97,3,0.163614012643078,1
476,79,3,0.126809291740205,1
476,87,3,0.113826533260838,1
476,88,3,0.118610802740411,1
476,94,3,0.118197387627262,1
476,95,3,0.119409839562338,1
476,96,3,0.126793652061814,1
476,97,3,0.141212587604575,1
476,98,3,0.157875581459218,1
476,99,3,0.167567683299151,1
477,75,3,0.124587927449605,1
477,76,3,0.115551184663241,1
477,85,3,0.159197240275111,1
477,86,3,0.186680960170733,1
477,87,3,0.180896340117405,1
477,88,3,0.186399010215631,1
477,89,3,0.154472879714197,1
477,94,3,0.116957059849752,1
477,95,3,0.117766625190114,1
477,96,3,0.115853744134296,1
477,97,3,0.118815578890919,1
477,98,3,0.123193793798754,1
477,99,3,0.123893763621712,1
478,85,3,0.193097479760042,1
478,86,3,0.220038427443528,1
478,87,3,0.200900878450586,1
478,88,3,0.194033587528355,1
478,89,3,0.153789762586856,1
478,94,3,0.114197763639048,1
478,98,3,0.114616136812892,1
479,85,3,0.169372252515986,1
479,86,3,0.209402645310278,1
479,87,3,0.19584184290433,1
479,88,3,0.163413841247278,1
479,89,3,0.123666929400702,1
479,98,3,0.122539023588498,1
479,99,3,0.121138024024619,1
480,85,3,0.14864733505062,1
480,86,3,0.215666312952414,1
480,87,3,0.216757557379954,1
480,88,3,0.165567900747209,1
480,89,3,0.131173386185397,1
480,90,3,0.116560485655353,1
480,91,3,0.119424819736219,1
480,92,3,0.128665278755127,1
480,93,3,0.132581451869031,1
480,94,3,0.132107515440178,1
480,95,3,0.125508913721641,1
480,96,3,0.122725298282113,1
480,97,3,0.128600246899646,1
480,98,3,0.13411614241868,1
481,85,3,0.125503814338551,1
481,86,3,0.193218086647398,1
481,87,3,0.213105339169509,1
481,88,3,0.182962614856244,1
481,89,3,0.169316889467704,1
481,90,3,0.154956214082324,1
481,91,3,0.157492750867743,1
481,92,3,0.1753892301406,1
481,93,3,0.187330713435963,1
481,96,3,0.16008161226995,1
481,97,3,0.142811367860404,1
482,86,3,0.156160751963274,1
482,87,3,0.181682964122295,1
482,88,3,0.171951798416982,1
482,89,3,0.166998342476735,1
482,90,3,0.1550454709517,1
482,91,3,0.158723845582106,1
482,92,3,0.185542749600552,1
482,97,3,0.163980072977001,1
483,85,3,0.125019266953199,1
483,86,3,0.14601441639174,1
483,87,3,0.153461034918974,1
483,88,3,0.138434436630991,1
483,89,3,0.129048945504106,1
483,90,3,0.125777438049208,1
483,91,3,0.133852599705541,1
483,92,3,0.155537308217266,1
484,84,3,0.131785995214447,1
484,85,3,0.155813829037023,1
484,86,3,0.145741734830383,1
484,87,3,0.126114315308541,1
484,91,3,0.116535565806349,1
484,92,3,0.128619537406578,1
484,93,3,0.156573719555505,1
485,83,3,0.130417911991761,1
485,84,3,0.180493971704807,1
485,85,3,0.187895119751416,1
485,86,3,0.144243929425857,1
485,93,3,0.121382064247234,1
486,84,3,0.215233536671136,1
486,85,3,0.194218507882351,1
486,86,3,0.132823278040789,1
487,84,3,0.217186800601355,1
461,59,4,0.12504696614264,1
462,59,4,0.163528948338091,1
463,60,4,0.141952928525068,1
463,61,4,0.147027415319856,1
463,62,4,0.115630760948552,1
464,61,4,0.21689280291207,1
464,62,4,0.15945955819416,1
465,60,4,0.184753063610435,1
465,61,4,0.217411738746898,1
465,62,4,0.170395155788627,1
466,60,4,0.182931088185269,1
466,61,4,0.2180507515101,1
466,62,4,0.195910678687612,1
467,59,4,0.204050059595654,1
467,60,4,0.1795345810719,1
467,61,4,0.184091509925213,1
467,93,4,0.126140577720298,1
467,94,4,0.133243912372955,1
467,95,4,0.12392723347562,1
467,96,4,0.116758819860017,1
468,58,4,0.184139064911166,1
468,59,4,0.206429010133664,1
468,60,4,0.174725321082126,1
468,92,4,0.148177343871964,1
468,93,4,0.167420260487323,1
468,94,4,0.165432455008367,1
468,95,4,0.141839281765671,1
468,96,4,0.125542136261357,1
468,97,4,0.117587828806573,1
469,59,4,0.199042300525088,1
469,60,4,0.175186020313304,1
469,64,4,0.143613066254106,1
469,91,4,0.150858500575041,1
469,92,4,0.180345689181742,1
469,93,4,0.181336123634107,1
469,94,4,0.167517136989168,1
469,95,4,0.138908549712838,1
469,96,4,0.119368702968496,1
469,97,4,0.114837141485104,1
470,91,4,0.146427313322773,1
470,92,4,0.164672317175693,1
470,93,4,0.16478694141499,1
470,94,4,0.174543238952899,1
470,95,4,0.165801106252866,1
470,96,4,0.134416970690395,1
470,97,4,0.120283365063352,1
471,92,4,0.121704561952864,1
471,93,4,0.149275854625986,1
471,94,4,0.204328606036407,1
471,95,4,0.227864979453137,1
471,96,4,0.172383491226564,1
471,97,4,0.130761584502925,1
471,98,4,0.118717889785302,1
472,71,4,0.153400925793589,1
472,72,4,0.125493580241772,1
472,92,4,0.114539916934465,1
472,93,4,0.151327973571582,1
472,94,4,0.208681218036996,1
472,95,4,0.253903489428944,1
472,96,4,0.20910188769976,1
472,97,4,0.152262091049497,1
472,98,4,0.143602785049862,1
472,99,4,0.155236585937348,1
473,92,4,0.114602028127114,1
473,93,4,0.143207671186879,1
473,94,4,0.175626286681523,1
473,95,4,0.223325868998474,1
473,96,4,0.219199820350971,1
473,97,4,0.181648116375035,1
474,93,4,0.126576098011415,1
474,94,4,0.14522788660178,1
474,95,4,0.175760307419548,1
474,96,4,0.195911043770466,1
475,79,4,0.135739842523513,1
475,80,4,0.133319260763278,1
475,93,4,0.126005544171775,1
475,94,4,0.137914864845385,1
475,95,4,0.148857446121543,1
475,96,4,0.170689895420485,1
476,75,4,0.115755242424908,1
476,79,4,0.132032626347639,1
476,80,4,0.128271271917572,1
476,93,4,0.126051556388248,1
476,94,4,0.13622069197286,1
476,95,4,0.139773760746273,1
476,96,4,0.15285479717457,1
476,97,4,0.182218175586292,1
477,75,4,0.133591223935793,1
477,76,4,0.120086467636371,1
477,85,4,0.126359321234189,1
477,86,4,0.140635379835499,1
477,87,4,0.131638843270543,1
477,88,4,0.153113923562862,1
477,89,4,0.138986300583878,1
477,93,4,0.114465369371047,1
477,94,4,0.128290585978237,1
477,95,4,0.13301035356131,1
477,96,4,0.135766540679322,1
477,97,4,0.152231270990498,1
477,98,4,0.17107880287495,1
477,99,4,0.175208890987579,1
478,85,4,0.16367123643623,1
478,86,4,0.176594945708175,1
478,87,4,0.15395315482933,1
478,88,4,0.169119379643677,1
478,89,4,0.147665898124077,1
478,94,4,0.121415769638466,1
478,95,4,0.124917043754073,1
478,96,4,0.12356717934349,1
478,97,4,0.138354601254623,1
478,98,4,0.163528312387313,1
479,85,4,0.140873237203328,1
479,86,4,0.171445181184261,1
479,87,4,0.155695565746052,1
479,88,4,0.135794510736686,1
479,94,4,0.116489812680934,1
479,95,4,0.118246650258823,1
479,96,4,0.123355148643366,1
479,97,4,0.148265481939045,1
480,85,4,0.126095331000132,1
480,86,4,0.193464494020131,1
480,87,4,0.191381178155816,1
480,88,4,0.13554310997266,1
480,91,4,0.116969519774253,1
480,92,4,0.131426329718903,1
480,93,4,0.13701316908028,1
480,94,4,0.137954305570486,1
480,95,4,0.13680780408646,1
480,96,4,0.145358574486653,1
480,97,4,0.171330898474086,1
481,86,4,0.173017263284282,1
481,87,4,0.188419814473844,1
481,88,4,0.154076529280257,1
481,89,4,0.154084184243326,1
481,90,4,0.152091173389483,1
481,91,4,0.166644989381506,1
481,92,4,0.197292835265477,1
482,86,4,0.139577899683523,1
482,87,4,0.15811805535862,1
482,88,4,0.150027477784355,1
482,89,4,0.161266129478259,1
482,90,4,0.158347869126794,1
482,91,4,0.172403488345472,1
483,85,4,0.119134731966532,1
483,86,4,0.139956137297156,1
483,87,4,0.14107913215613,1
483,88,4,0.127511122308032,1
483,89,4,0.12903111532859,1
483,90,4,0.13120293434284,1
483,91,4,0.144609459800798,1
484,85,4,0.142085076741358,1
484,86,4,0.137686005003378,1
484,87,4,0.118350687095353,1
484,90,4,0.119030035625492,1
484,91,4,0.131652433774206,1
484,92,4,0.149138206613153,1
485,84,4,0.156884923246394,1
485,85,4,0.166263018501268,1
485,86,4,0.129703574391967,1
485,90,4,0.115771176524956,1
485,91,4,0.123991016983278,1
485,92,4,0.12972642151251,1
485,93,4,0.148035326641749,1
486,84,4,0.212631697162312,1
486,85,4,0.186566830559819,1
486,86,4,0.125335923333166,1
487,83,4,0.234925281436484,1
487,84,4,0.248068499718627,1
487,85,4,0.176724232145965,1
488,83,4,0.237933988120816,1
488,84,4,0.226360484788576,1
453,83,5,0.126865608714655,1
453,84,5,0.121709343360566,1
460,56,5,0.126406428699224,1
460,57,5,0.114546829954959,1
461,57,5,0.163747291438529,1
461,58,5,0.142660082236444,1
462,58,5,0.174696879950111,1
462,59,5,0.141917421273298,1
463,58,5,0.181696248427435,1
463,59,5,0.159314773400374,1
463,60,5,0.123148641293518,1
464,59,5,0.165910819538933,1
464,60,5,0.1623159782209,1
464,61,5,0.178075121143912,1
464,62,5,0.136190872947492,1
465,61,5,0.207438146249648,1
465,62,5,0.165241740436172,1
466,59,5,0.197038678714746,1
466,60,5,0.178810551111176,1
466,61,5,0.190086665016649,1
466,62,5,0.164824050320571,1
466,93,5,0.116338809701764,1
466,94,5,0.1245024156237,1
466,95,5,0.120824547398542,1
466,96,5,0.115972572714847,1
466,97,5,0.114915822728579,1
466,98,5,0.116048886808204,1
467,58,5,0.231575964226214,1
467,59,5,0.25579245166939,2
467,60,5,0.2008359879175,1
467,61,5,0.169851076344336,1
467,92,5,0.11531330374168,1
467,93,5,0.153608045540482,1
467,94,5,0.170116774224001,1
467,95,5,0.152066147548683,1
467,96,5,0.130115764711025,1
467,97,5,0.11745392583721,1
468,57,5,0.154199797739388,1
468,58,5,0.255820127305098,2
468,59,5,0.287677280700854,2
468,60,5,0.227761131046467,2
468,61,5,0.181557764257098,1
468,64,5,0.117648726981997,1
468,92,5,0.158708229457447,1
468,93,5,0.199134136528174,1
468,94,5,0.210474646338351,1
468,95,5,0.179134568032554,1
468,96,5,0.148125796528349,1
468,97,5,0.134061403544309,1
468,98,5,0.121925813939268,1
469,58,5,0.23160024812444,1
469,59,5,0.262890416071032,2
469,60,5,0.22301288700078,2
469,61,5,0.200500323675392,1
469,62,5,0.216536953121195,1
469,63,5,0.212755307150565,1
469,91,5,0.141384306091495,1
469,92,5,0.186365269493799,1
469,93,5,0.202104215091178,1
469,94,5,0.192307204926612,1
469,95,5,0.159366485620117,1
469,96,5,0.142047496761126,1
469,97,5,0.140874509104884,1
469,98,5,0.127328345343696,1
470,59,5,0.198013614811115,1
470,60,5,0.178581549946773,1
470,61,5,0.175245705471504,1
470,62,5,0.200863875536801,1
470,63,5,0.204136525347726,1
470,91,5,0.141508281162601,1
470,92,5,0.16564303715394,1
470,93,5,0.172154301632302,1
470,94,5,0.175391503075788,1
470,95,5,0.156976747472614,1
470,96,5,0.138967540035928,1
470,97,5,0.139046374378664,1
470,98,5,0.123070525339624,1
471,61,5,0.157251807960954,1
471,62,5,0.181772609628257,1
471,63,5,0.168532361745007,1
471,93,5,0.14226730019298,1
471,94,5,0.184133470899693,1
471,95,5,0.195269687410879,1
471,96,5,0.157407827885151,1
471,97,5,0.139863630012694,1
471,98,5,0.132262051479226,1
471,99,5,0.127815224548567,1
472,62,5,0.159939335948677,1
472,71,5,0.130951462917616,1
472,93,5,0.142554808828956,1
472,94,5,0.186480247039084,1
472,95,5,0.222986624589023,1
472,96,5,0.195924987580117,1
472,97,5,0.163612469873598,1
472,98,5,0.163473608843541,1
473,93,5,0.138212289602751,1
473,94,5,0.164701194051759,1
473,95,5,0.21495487246172,1
474,93,5,0.121324534255559,1
474,94,5,0.14131938022781,1
474,95,5,0.184763368368411,1
475,79,5,0.11730081479898,1
475,80,5,0.123135474757041,1
475,93,5,0.125796881655402,1
475,94,5,0.141908941929591,1
475,95,5,0.164283091745839,1
476,80,5,0.116225210049831,1
476,93,5,0.131827155362021,1
476,94,5,0.147678393379178,1
476,95,5,0.159599644018308,1
477,75,5,0.127653610612897,1
477,76,5,0.115878310677312,1
477,93,5,0.116903981513523,1
477,94,5,0.136598953140226,1
477,95,5,0.150043117462747,1
477,96,5,0.159190492130745,1
478,85,5,0.120025310369889,1
478,86,5,0.125878483561709,1
478,88,5,0.131935172779347,1
478,89,5,0.130260949918264,1
478,94,5,0.124450844726352,1
478,95,5,0.135109050012959,1
478,96,5,0.140847610742349,1
478,97,5,0.164496665215443,1
479,86,5,0.130353775178116,1
479,87,5,0.114329252350827,1
479,94,5,0.122563955214368,1
479,95,5,0.129382065943102,1
479,96,5,0.140246766802691,1
480,86,5,0.155380322590036,1
480,87,5,0.151889647654062,1
480,92,5,0.131400126191477,1
480,93,5,0.138761480206998,1
481,86,5,0.148645957157268,1
481,87,5,0.159185039441667,1
481,88,5,0.124526569976396,1
481,89,5,0.125929324293348,1
481,90,5,0.139046633469722,1
481,91,5,0.165540813954814,1
482,74,5,0.120005419242778,1
482,86,5,0.132045368916931,1
482,87,5,0.139891293871535,1
482,88,5,0.12845017429291,1
482,89,5,0.141143787151891,1
482,90,5,0.151172024308583,1
483,75,5,0.115751591596367,1
483,85,5,0.12349191339123,1
483,86,5,0.143096403354466,1
483,87,5,0.132690305443861,1
483,88,5,0.117528014102844,1
483,89,5,0.120321792977954,1
483,90,5,0.126738913187443,1
483,91,5,0.148777010124996,1
484,85,5,0.132346680040162,1
484,86,5,0.133870088351935,1
484,87,5,0.114541577472607,1
484,90,5,0.121063900428386,1
484,91,5,0.1364986495703,1
485,84,5,0.137731122178016,1
485,85,5,0.144726533628276,1
485,86,5,0.120605085495809,1
485,89,5,0.114184950408558,1
485,92,5,0.143820068232337,1
486,83,5,0.170485578567762,1
486,84,5,0.213745176313349,1
486,85,5,0.183451896541832,1
486,86,5,0.126529897365082,1
487,82,5,0.134950356740122,1
487,83,5,0.24582298107533,1
487,84,5,0.279965435368605,1
487,85,5,0.201616676381796,1
488,82,5,0.137599350821446,1
488,83,5,0.246946564777616,1
488,84,5,0.254785906463983,1
488,85,5,0.165738700638561,1
489,83,5,0.154792492087595,1
489,84,5,0.150411792260978,1
451,58,6,0.124497375124941,1
453,83,6,0.160065419078844,1
453,84,6,0.144004505734816,1
454,83,6,0.136766113979903,1
454,84,6,0.134019583892224,1
455,86,6,0.114221258487234,1
456,87,6,0.115514417286781,1
457,88,6,0.115930764839629,1
460,56,6,0.126513303760523,1
461,55,6,0.190122278260216,1
461,56,6,0.207878224188006,1
461,57,6,0.15342198283046,1
461,58,6,0.120999162994561,1
462,56,6,0.241087927119852,1
462,57,6,0.175682509441043,1
462,58,6,0.148328511727262,1
462,59,6,0.123354359593327,1
463,57,6,0.167577210783954,1
463,58,6,0.184851588873556,1
463,59,6,0.168673130627399,1
463,60,6,0.121897832105038,1
464,58,6,0.207886373779457,1
464,59,6,0.202321616042315,1
464,60,6,0.162868513455164,1
464,61,6,0.146715081049807,1
465,59,6,0.20057046669083,1
465,60,6,0.183845926933118,1
465,61,6,0.194555573571544,1
465,62,6,0.151709638253297,1
465,95,6,0.120711725019783,1
466,58,6,0.221423716667818,1
466,59,6,0.230995859348038,2
466,60,6,0.181499951620633,1
466,61,6,0.16086599867025,1
466,62,6,0.128542622693041,1
466,93,6,0.122101359907722,1
466,94,6,0.128933190685648,1
466,95,6,0.130954489572244,1
466,96,6,0.135972188317933,1
466,97,6,0.132684193250273,1
467,57,6,0.176881005789602,1
467,58,6,0.300295062317994,2
467,59,6,0.339567166247614,2
467,60,6,0.242617906922998,2
467,61,6,0.159567728710747,1
467,62,6,0.119476449517897,1
467,92,6,0.122752102429718,1
467,93,6,0.175350001399092,1
467,94,6,0.189976115573078,1
467,95,6,0.161289059036865,1
467,96,6,0.132651865752392,1
467,97,6,0.120599915451522,1
468,57,6,0.182976311351703,2
468,58,6,0.333501467727288,2
468,59,6,0.4063091875856,2
468,60,6,0.311998440931337,2
468,61,6,0.210629983204304,2
468,62,6,0.16759003579131,1
468,63,6,0.147910527190005,1
468,64,6,0.122690132559464,1
468,92,6,0.166971467667933,1
468,93,6,0.229198921540538,1
468,94,6,0.245709334315932,1
468,95,6,0.2001459106622,1
468,96,6,0.153098625413592,1
468,97,6,0.135422750399495,1
469,57,6,0.161110827942905,1
469,58,6,0.294558856961857,2
469,59,6,0.370622315051146,2
469,60,6,0.30909139215655,2
469,61,6,0.244059654444132,2
469,62,6,0.232078082696024,1
469,63,6,0.228312194172449,1
469,64,6,0.197630937318901,1
469,65,6,0.115233433034713,1
469,91,6,0.126429346480964,1
469,92,6,0.188654527418382,1
469,93,6,0.221551024592075,1
469,94,6,0.218816860213968,1
469,95,6,0.180485221493177,1
469,96,6,0.157290942487532,1
469,97,6,0.151277085732477,1
469,98,6,0.136594949005698,1
470,58,6,0.209256918367191,1
470,59,6,0.258232547697015,2
470,60,6,0.235463154472256,2
470,61,6,0.234155663226471,1
470,62,6,0.256366903651761,1
470,63,6,0.241586441868587,1
470,64,6,0.199696081478579,1
470,91,6,0.122757272474006,1
470,92,6,0.153358611513121,1
470,93,6,0.168874962561342,1
470,94,6,0.17086773787786,1
470,95,6,0.14857323500812,1
470,96,6,0.139574072201989,1
470,97,6,0.142607580966662,1
470,98,6,0.123963671099825,1
471,59,6,0.158514229139566,1
471,60,6,0.174006402281358,1
471,61,6,0.240009778567592,1
471,62,6,0.287836362610277,3
471,63,6,0.22872928366787,1
471,64,6,0.14961559366382,1
471,93,6,0.124551902015719,1
471,94,6,0.152216985651726,1
471,95,6,0.155509691465889,1
471,96,6,0.141188009284693,1
471,97,6,0.1381666189154,1
471,98,6,0.129700759720932,1
472,61,6,0.190776659833886,1
472,62,6,0.234526870050949,1
472,63,6,0.173242413413417,1
472,93,6,0.127577956024051,1
472,94,6,0.155307082258773,1
472,95,6,0.181860253066955,1
473,62,6,0.148206020541304,1
473,93,6,0.128937018167182,1
473,94,6,0.146863928862452,1
474,94,6,0.134004945247464,1
475,93,6,0.119975011374097,1
475,94,6,0.144919085391608,1
476,93,6,0.135419888620994,1
476,94,6,0.16530501753858,1
477,93,6,0.123874484891647,1
477,94,6,0.156902812306241,1
478,94,6,0.132619031849263,1
478,95,6,0.154976611614685,1
479,94,6,0.126702558001302,1
479,95,6,0.146523777634299,1
480,93,6,0.132611942175775,1
481,74,6,0.126079844421002,1
481,77,6,0.116092178568572,1
481,86,6,0.119148711106781,1
481,87,6,0.129921352202825,1
481,91,6,0.134478763907655,1
482,74,6,0.140286666825576,1
482,75,6,0.117546845311992,1
482,86,6,0.120115721372158,1
482,87,6,0.125476268248372,1
482,90,6,0.125644512559745,1
483,86,6,0.132916550821559,1
483,87,6,0.118050223906492,1
483,90,6,0.113915071741372,1
484,78,6,0.138090222383979,1
484,79,6,0.133476340605438,1
484,85,6,0.11518886937279,1
484,86,6,0.120262790877997,1
485,84,6,0.124937912361084,1
485,85,6,0.129833343681273,1
486,83,6,0.171899544461392,1
486,84,6,0.230211096088017,1
486,85,6,0.19582931231863,1
487,82,6,0.135667332357958,1
487,83,6,0.257739874273944,1
487,84,6,0.329531062144262,1
487,85,6,0.245434415149987,1
487,86,6,0.153453391732772,1
488,82,6,0.131651892038358,1
488,83,6,0.244628806836688,1
488,84,6,0.284549297915052,1
488,85,6,0.19975831043989,1
489,83,6,0.146573358241248,1
489,84,6,0.156394770072703,1
453,83,7,0.158174548986064,1
453,84,7,0.133789322603132,1
454,83,7,0.133852081523425,1
454,84,7,0.130126764304111,1
460,55,7,0.114044016650039,1
460,56,7,0.127955369257047,1
461,55,7,0.16971470023306,1
461,56,7,0.198962123619598,1
461,57,7,0.141689845109713,1
462,55,7,0.209654811570611,1
462,56,7,0.250793807893308,1
462,57,7,0.176365614791518,1
462,58,7,0.127042544353327,1
463,55,7,0.160048330845902,1
463,56,7,0.196789056257525,1
463,57,7,0.172394761687574,1
463,58,7,0.172762470782772,1
463,59,7,0.165519615595548,1
463,60,7,0.117031124561653,1
464,56,7,0.122870907456537,1
464,57,7,0.154454684455827,1
464,58,7,0.219613164802923,1
464,59,7,0.229286164565784,1
464,60,7,0.162562609354092,1
464,61,7,0.115287630173236,1
464,95,7,0.124623893999159,1
465,57,7,0.142126272219531,1
465,58,7,0.212110311739303,1
465,59,7,0.222259779957262,1
465,60,7,0.172959144449294,1
465,61,7,0.157878678775044,1
465,62,7,0.12426005949296,1
465,94,7,0.115739237663662,1
465,95,7,0.139600028415223,1
465,96,7,0.1648299387537,1
466,57,7,0.154650027336462,1
466,58,7,0.227963622484921,2
466,59,7,0.235816389798822,2
466,60,7,0.162272710014265,1
466,61,7,0.125017276662802,1
466,93,7,0.121518087052523,1
466,94,7,0.127832913401688,1
466,95,7,0.137632290716372,1
466,96,7,0.155322992805088,1
467,54,7,0.152640434654927,1
467,55,7,0.165228138155643,1
467,57,7,0.189353472653975,2
467,58,7,0.319487091094249,2
467,59,7,0.369518328054314,2
467,60,7,0.246506816591513,2
467,61,7,0.137214294402248,1
467,92,7,0.124887189398107,1
467,93,7,0.183608081342156,1
467,94,7,0.193048770641196,1
467,95,7,0.16104426509481,1
467,96,7,0.135774560725244,1
467,97,7,0.127713095564371,1
468,57,7,0.18667864012808,2
468,58,7,0.353780218614439,2
468,59,7,0.47368854937178,2
468,60,7,0.359814402240657,2
468,61,7,0.204996236584618,2
468,62,7,0.134059413253911,1
468,63,7,0.120719686181374,1
468,92,7,0.172108807597944,1
468,93,7,0.255780509927003,1
468,94,7,0.276311568396883,1
468,95,7,0.221279826915868,1
468,96,7,0.160436201936136,1
468,97,7,0.139299341465903,1
469,57,7,0.163532210530045,2
469,58,7,0.31385659488965,2
469,59,7,0.452291302388565,2
469,60,7,0.378477602614427,2
469,61,7,0.248606537630527,2
469,62,7,0.194947872763491,1
469,63,7,0.191684408908248,1
469,92,7,0.191010595505251,1
469,93,7,0.249592473319981,1
469,94,7,0.264114432888774,1
469,95,7,0.224335005114457,1
469,96,7,0.181259079375042,1
469,97,7,0.161377691732329,1
469,98,7,0.148488476901655,1
470,57,7,0.145472562775172,1
470,58,7,0.232889579442453,2
470,59,7,0.315995226694783,2
470,60,7,0.28803444950075,2
470,61,7,0.264196753183923,2
470,62,7,0.269646286061589,3
470,63,7,0.228516711231899,1
470,64,7,0.180715777203925,1
470,92,7,0.138935565844035,1
470,93,7,0.170619045793073,1
470,94,7,0.183620576597256,1
470,95,7,0.165231565223724,1
470,96,7,0.151787200694477,1
470,97,7,0.14950145227604,1
470,98,7,0.130122583516589,1
471,58,7,0.154940374197206,1
471,59,7,0.174622426601623,2
471,60,7,0.192998789620793,2
471,61,7,0.292432920618551,3
471,62,7,0.36452293469332,3
471,63,7,0.253190164639648,3
471,64,7,0.141454343115136,1
471,94,7,0.127316674469233,1
471,95,7,0.13160101597612,1
471,96,7,0.138638058648606,1
471,97,7,0.145400288146942,1
471,98,7,0.130668017300499,1
472,60,7,0.119216463418368,1
472,61,7,0.215198465163417,1
472,62,7,0.287305791231586,3
472,63,7,0.195492387951832,1
472,94,7,0.123184136768422,1
472,95,7,0.145749884421835,1
473,61,7,0.131968642633255,1
473,62,7,0.161176684179024,1
473,94,7,0.125919608378684,1
474,94,7,0.127971703770547,1
476,93,7,0.124869100131533,1
477,93,7,0.132675584361038,1
478,93,7,0.119316719880829,1
478,94,7,0.159221229751681,1
479,93,7,0.11818848431637,1
479,94,7,0.147988937565556,1
481,73,7,0.122338863969563,1
481,74,7,0.137616415500655,1
481,75,7,0.118476416919532,1
481,77,7,0.119082148258687,1
481,78,7,0.114205618808843,1
482,72,7,0.144188436832046,1
482,75,7,0.128878440034411,1
482,77,7,0.114521874775356,1
482,91,7,0.129192187528412,1
483,76,7,0.120008045483953,1
483,77,7,0.121473605828663,1
483,78,7,0.119356808333574,1
483,91,7,0.13005789319023,1
484,75,7,0.14736986303693,1
484,76,7,0.151360289292596,1
484,77,7,0.162186680006245,1
484,79,7,0.166247979443056,1
484,80,7,0.12192231620999,1
485,80,7,0.170937456926112,1
486,83,7,0.155494028233765,1
486,84,7,0.220731001394475,1
486,85,7,0.193561111430918,1
487,82,7,0.126840276675332,1
487,83,7,0.241993638796351,1
487,84,7,0.341091987783338,1
487,85,7,0.26919207588372,1
487,86,7,0.174965074525423,1
488,83,7,0.221653483328527,1
488,84,7,0.286438542800288,1
488,85,7,0.222250193588128,1
489,84,7,0.150438455086188,1
453,83,8,0.128426326138736,1
455,52,8,0.220126047328493,1
455,53,8,0.120631477453095,1
456,52,8,0.178602088801529,1
460,56,8,0.11605305581886,1
461,55,8,0.13799106117008,1
461,56,8,0.165416285370993,1
461,57,8,0.116877295134581,1
462,55,8,0.169072766807025,1
462,56,8,0.223844427973581,1
462,57,8,0.160456517030432,1
463,55,8,0.137827209629821,1
463,56,8,0.188589672215895,1
463,57,8,0.160311791120978,1
463,58,8,0.138839678598956,1
463,59,8,0.136490429317651,1
463,92,8,0.114208351041815,1
464,56,8,0.11582927180621,1
464,57,8,0.136126394604726,1
464,58,8,0.190206400415902,1
464,59,8,0.215882512663193,1
464,60,8,0.14885446657438,1
464,92,8,0.122275951950009,1
464,93,8,0.118741502402151,1
464,94,8,0.117162342405509,1
464,95,8,0.140856313846514,1
465,55,8,0.120168399294933,1
465,57,8,0.125685708037918,1
465,58,8,0.192256823492757,1
465,59,8,0.216298094719734,1
465,60,8,0.154772377200025,1
465,61,8,0.1183714732643,1
465,92,8,0.120018044043407,1
465,93,8,0.120394903763689,1
465,94,8,0.125484971352537,1
465,95,8,0.157294028026492,1
466,54,8,0.205538891028091,1
466,55,8,0.211061087170574,1
466,56,8,0.158493843384072,1
466,57,8,0.145928374606853,1
466,58,8,0.200096023856728,1
466,59,8,0.209147581940845,2
466,60,8,0.138213997248359,1
466,93,8,0.125467576921073,1
466,94,8,0.130856670921099,1
466,95,8,0.145323585416999,1
466,96,8,0.175583513103271,1
467,53,8,0.15447627145168,1
467,54,8,0.265371731130563,4
467,55,8,0.273977982347702,4
467,56,8,0.196848647200794,1
467,57,8,0.182488077807212,1
467,58,8,0.286309703883417,2
467,59,8,0.341507216533891,2
467,60,8,0.224667607371338,2
467,61,8,0.118185693199067,1
467,92,8,0.116919338547125,1
467,93,8,0.175632481313175,1
467,94,8,0.185057201181568,1
467,95,8,0.160711709945394,1
467,96,8,0.149718700127916,1
467,97,8,0.157464097752135,1
468,54,8,0.216280076114358,1
468,55,8,0.223155033776524,1
468,57,8,0.179688799135559,2
468,58,8,0.332072580544108,2
468,59,8,0.493800987353624,2
468,60,8,0.381933264927013,2
468,61,8,0.193324525964645,2
468,92,8,0.160562237958837,1
468,93,8,0.258162663772635,1
468,94,8,0.288621691159879,1
468,95,8,0.238874370891581,1
468,96,8,0.176683425304378,1
469,57,8,0.174831984159832,2
469,58,8,0.314342743928813,2
469,59,8,0.514858966373655,2
469,60,8,0.448044752845503,2
469,61,8,0.254284989234531,2
469,62,8,0.15555404314422,1
469,63,8,0.142462607743016,1
469,64,8,0.130389623959007,1
469,92,8,0.17678056089728,1
469,93,8,0.260109097120424,1
469,94,8,0.30127025750542,1
469,95,8,0.267795527975286,1
469,96,8,0.202746760914258,1
469,97,8,0.175212871568374,1
469,98,8,0.178271064644726,1
470,57,8,0.195804781106213,1
470,58,8,0.25557830113334,2
470,59,8,0.367427109912739,2
470,60,8,0.347284852905527,2
470,61,8,0.280136341251753,2
470,62,8,0.253613684304047,3
470,63,8,0.193275298663684,1
470,64,8,0.140398653046831,1
470,92,8,0.115289938439023,1
470,93,8,0.159552077255489,1
470,94,8,0.194797917925417,1
470,95,8,0.191108661470588,1
470,96,8,0.167004866860643,1
470,97,8,0.154856416917647,1
470,98,8,0.143405192787772,1
471,56,8,0.183361968391079,1
471,57,8,0.201192261675562,1
471,58,8,0.184588611449997,1
471,59,8,0.187267083027567,2
471,60,8,0.199802897655546,2
471,61,8,0.2871600642885,3
471,62,8,0.3659691338699,3
471,63,8,0.241260316888149,3
471,64,8,0.120820672809543,1
471,95,8,0.122982528594938,1
471,96,8,0.142128733584579,1
471,97,8,0.148438448773788,1
471,98,8,0.134621676179705,1
472,61,8,0.195032265787101,1
472,62,8,0.284948156821505,3
472,63,8,0.198418008844709,1
472,95,8,0.121097994456205,1
472,96,8,0.168863821645861,1
473,62,8,0.158919624206793,1
473,63,8,0.124232301419188,1
473,95,8,0.140449517332203,1
474,94,8,0.126646476564177,1
478,93,8,0.140177872135077,1
479,93,8,0.129979883228131,1
481,74,8,0.138219944565819,1
481,75,8,0.134458166168568,1
482,75,8,0.151876669547445,1
482,76,8,0.121020149370234,1
483,76,8,0.133985713624864,1
483,77,8,0.127909545470434,1
483,78,8,0.12242087806619,1
483,91,8,0.116013061581045,1
484,80,8,0.117575510204466,1
486,83,8,0.114977769045101,1
486,84,8,0.16832361679057,1
486,85,8,0.15448357310876,1
486,86,8,0.114711411660925,1
487,83,8,0.186559434687808,1
487,84,8,0.283286723637179,1
487,85,8,0.23783466203079,1
488,83,8,0.17324379130677,1
488,84,8,0.243661525703387,1
488,85,8,0.209952365873506,1
489,84,8,0.129668326231255,1
454,52,9,0.16894787314035,1
455,51,9,0.246063747329125,1
455,52,9,0.244904762366864,1
455,53,9,0.120254488187285,1
456,51,9,0.230689590164112,1
456,52,9,0.199374502368516,1
457,52,9,0.14827361975363,1
458,52,9,0.145667458134889,1
459,52,9,0.124009165134182,1
461,55,9,0.115384848204202,1
461,56,9,0.126326981959443,1
462,55,9,0.129820942641103,1
462,56,9,0.168850608001919,1
462,57,9,0.12635315015627,1
462,92,9,0.123064990212482,1
462,93,9,0.122503363237466,1
462,94,9,0.117213348013276,1
463,56,9,0.155511528657026,1
463,57,9,0.133057837886066,1
463,92,9,0.149476815071826,1
463,93,9,0.129397093224449,1
463,94,9,0.115354346120592,1
463,95,9,0.13659066222638,1
464,58,9,0.144492845271103,1
464,59,9,0.17169150611893,1
464,60,9,0.119259107451091,1
464,92,9,0.150622233084157,1
464,93,9,0.124737505427958,1
464,94,9,0.11830196619964,1
464,95,9,0.147922763354048,1
465,54,9,0.12767692880809,1
465,55,9,0.121827700866466,1
465,58,9,0.155020433334034,1
465,59,9,0.185209087425708,1
465,60,9,0.125410753541374,1
465,92,9,0.138790321752466,1
465,93,9,0.126386219596724,1
465,94,9,0.130572141832286,1
466,53,9,0.149967663080627,1
466,54,9,0.262362482710383,4
466,55,9,0.254999538817917,4
466,56,9,0.161428073166184,1
466,57,9,0.122366421836609,1
466,58,9,0.152385854137011,1
466,59,9,0.161976097860671,1
466,93,9,0.129778180839717,1
466,94,9,0.137378251934303,1
466,95,9,0.151511080288173,1
467,53,9,0.190017004852728,4
467,54,9,0.364146357617828,4
467,55,9,0.362579092256107,4
467,56,9,0.217227383682483,4
467,57,9,0.152987852209562,1
467,58,9,0.208935480579524,1
467,59,9,0.25228923437085,2
467,60,9,0.167496150613495,2
467,93,9,0.157697256150327,1
467,94,9,0.173721001704442,1
467,95,9,0.160285740692813,1
467,96,9,0.158159568812182,1
468,53,9,0.149188281848486,1
468,54,9,0.277496957093296,4
468,55,9,0.28309494914702,4
468,56,9,0.184856028752135,1
468,57,9,0.152045608693928,1
468,58,9,0.259057375856049,2
468,59,9,0.415986615450174,2
468,60,9,0.329841523892577,2
468,61,9,0.158005974922435,2
468,92,9,0.139486605416284,1
468,93,9,0.236162582559366,1
468,94,9,0.274351520991699,1
468,95,9,0.234544111383151,1
469,54,9,0.141067979463783,1
469,55,9,0.165033631432513,1
469,57,9,0.174699317761427,2
469,58,9,0.276951287772061,2
469,59,9,0.49040840193672,2
469,60,9,0.449693137262014,2
469,61,9,0.234869506197882,2
469,62,9,0.117448249387674,1
469,92,9,0.150596842160503,1
469,93,9,0.243322446170064,1
469,94,9,0.297007667870514,1
469,95,9,0.268372735744362,1
469,96,9,0.195629105592231,1
470,56,9,0.220775023320551,1
470,57,9,0.246939899071314,1
470,58,9,0.254903039175793,2
470,59,9,0.364627654588093,2
470,60,9,0.36808772144866,2
470,61,9,0.260077181812863,2
470,62,9,0.200082244923205,1
470,63,9,0.145812502019733,1
470,93,9,0.136942272345402,1
470,94,9,0.182520051999104,1
470,95,9,0.190071790834564,1
470,96,9,0.160290545654247,1
470,97,9,0.14797882123744,1
470,98,9,0.145185360337719,1
471,55,9,0.171413042116241,1
471,56,9,0.25969824936412,5
471,57,9,0.276739115749542,5
471,58,9,0.205173596190476,1
471,59,9,0.182867599099268,2
471,60,9,0.192248921215497,2
471,61,9,0.23436474971003,1
471,62,9,0.292424347059915,3
471,63,9,0.202557341797351,1
471,96,9,0.13229735852427,1
471,97,9,0.139531522384195,1
471,98,9,0.13401673389059,1
472,56,9,0.183270179495458,1
472,57,9,0.188479629177572,1
472,61,9,0.160425461434108,1
472,62,9,0.25123129492109,1
472,63,9,0.196110732314751,1
472,96,9,0.151481944321049,1
473,62,9,0.158311360841392,1
473,63,9,0.136879407433313,1
473,95,9,0.120614660088078,1
474,94,9,0.123628065742048,1
478,93,9,0.149524181627919,1
479,93,9,0.12548757403998,1
481,74,9,0.122856881208823,1
481,75,9,0.136046111707439,1
482,75,9,0.162752299338922,1
482,76,9,0.125470945104823,1
483,76,9,0.137009094284555,1
483,77,9,0.124611104322402,1
483,78,9,0.119454120579471,1
486,84,9,0.116980307383747,1
486,85,9,0.114763971815038,1
487,83,9,0.133699735981501,1
487,84,9,0.206441729149223,1
487,85,9,0.1917464141091,1
487,86,9,0.147120205249109,1
487,87,9,0.139971247016566,1
487,88,9,0.138613821857845,1
488,83,9,0.132229394229091,1
488,84,9,0.193472090098868,1
488,85,9,0.189500259515025,1
450,52,10,0.121089020484116,1
451,51,10,0.128381244294697,1
451,52,10,0.151971956172345,1
451,53,10,0.114133768147798,1
452,51,10,0.133331602919118,1
452,52,10,0.145107267937557,1
453,51,10,0.115849339586315,1
453,52,10,0.116765085152867,1
454,51,10,0.147181739375312,1
454,52,10,0.142727163266654,1
455,51,10,0.229539979587393,1
455,52,10,0.216658419719788,1
456,51,10,0.226795074707258,1
456,52,10,0.183607327622715,1
457,51,10,0.21843835173241,1
457,52,10,0.13746256251985,1
458,51,10,0.248897614656979,1
458,52,10,0.139336579917014,1
459,51,10,0.228812663880982,1
459,52,10,0.121550002360084,1
461,54,10,0.114526243992738,1
462,54,10,0.11447999623894,1
462,55,10,0.117134207472017,1
462,56,10,0.115506385463993,1
462,92,10,0.129724537213908,1
462,93,10,0.129985182817948,1
462,94,10,0.128029021778629,1
463,92,10,0.165795088274208,1
463,93,10,0.13560672860419,1
463,94,10,0.117704714204191,1
464,91,10,0.115698713466865,1
464,92,10,0.15548195694585,1
464,93,10,0.118445549753067,1
465,59,10,0.132688008954941,1
465,92,10,0.132179919613937,1
465,93,10,0.116998031567466,1
465,94,10,0.126317878441824,1
466,53,10,0.146951195441429,1
466,54,10,0.272564593520519,4
466,55,10,0.261007059618925,4
466,56,10,0.152633898494153,1
466,93,10,0.121887739330654,1
466,94,10,0.141517832201137,1
466,95,10,0.165596494978486,1
467,53,10,0.200883307366128,4
467,54,10,0.425897931878649,4
467,55,10,0.430275487281974,4
467,56,10,0.234032618527799,4
467,57,10,0.131259263094156,1
467,58,10,0.13802493143744,1
467,59,10,0.159209335116759,1
467,93,10,0.131628291198375,1
467,94,10,0.169906886913537,1
467,95,10,0.183123380857542,1
468,53,10,0.154405327609337,1
468,54,10,0.319642757712458,4
468,55,10,0.341349901154406,4
468,56,10,0.204489006954852,4
468,57,10,0.13272046599835,1
468,58,10,0.183790999628887,1
468,59,10,0.297661095518017,2
468,60,10,0.242031089231054,2
468,61,10,0.116336136353123,1
468,93,10,0.188790067372154,1
468,94,10,0.240802479435472,1
468,95,10,0.224950181500352,1
469,54,10,0.146094263544974,1
469,55,10,0.180254924873486,4
469,56,10,0.172999680422957,1
469,57,10,0.17196792094689,1
469,58,10,0.23105443748081,2
469,59,10,0.405754544292276,2
469,60,10,0.387877591063676,2
469,61,10,0.19430841247937,2
469,93,10,0.193065081600964,1
469,94,10,0.247015553660161,1
469,95,10,0.22849193270529,1
469,96,10,0.172796635471789,1
470,55,10,0.162288008163535,1
470,56,10,0.263950758001509,5
470,57,10,0.296756325990818,5
470,58,10,0.255516661015341,2
470,59,10,0.324949107450149,2
470,60,10,0.341007359222403,2
470,61,10,0.216244486424524,2
470,62,10,0.13725917603956,1
470,94,10,0.148951331299359,1
470,95,10,0.162967686445929,1
470,96,10,0.142583367729634,1
470,97,10,0.137760788104121,1
471,55,10,0.20616636246236,5
471,56,10,0.341405181764625,5
471,57,10,0.363338441038742,5
471,58,10,0.238619825704264,5
471,59,10,0.177504367097546,2
471,60,10,0.179498155224562,2
471,61,10,0.179374663004972,1
471,62,10,0.201779385566028,1
471,63,10,0.147600454078277,1
471,96,10,0.118077028054097,1
471,97,10,0.126848979779497,1
471,98,10,0.141503087564581,1
472,55,10,0.177652437637018,1
472,56,10,0.247709611496257,5
472,57,10,0.246343706993829,5
472,58,10,0.159058661889844,1
472,61,10,0.136676539135139,1
472,62,10,0.209286690285093,1
472,63,10,0.174419134336264,1
472,96,10,0.130313545402976,1
473,56,10,0.135307195787764,1
473,57,10,0.122677731519294,1
473,62,10,0.150411309409462,1
473,63,10,0.135727912557993,1
474,94,10,0.118767894359437,1
477,93,10,0.117374691081021,1
478,93,10,0.131455159487505,1
480,93,10,0.123005929228194,1
482,75,10,0.134981377005848,1
483,69,10,0.115062468267234,1
483,70,10,0.11499473950938,1
484,91,10,0.131292108774152,1
486,71,10,0.115821711058072,1
487,80,10,0.142039252954745,1
487,84,10,0.14422169470236,1
487,85,10,0.149401666888229,1
487,86,10,0.130979974710828,1
487,87,10,0.138408598186419,1
488,79,10,0.140284017030668,1
488,84,10,0.158905303537422,1
488,85,10,0.177281313250604,1
488,86,10,0.190738985638724,1
489,84,10,0.114836375988797,1
489,85,10,0.143719093381034,1
450,52,11,0.156156524068287,1
450,53,11,0.137797155067129,1
451,51,11,0.144855372545148,1
451,52,11,0.201821122780049,1
451,53,11,0.167240003772366,1
452,51,11,0.139135737239836,1
452,52,11,0.170674149750297,1
452,53,11,0.131092172915676,1
455,50,11,0.134415204160456,1
455,51,11,0.165912162101686,1
455,52,11,0.147980681982309,1
456,50,11,0.178690497736533,1
456,51,11,0.177176746455093,1
456,52,11,0.130612159623834,1
457,50,11,0.217678461213927,1
457,51,11,0.185922223785143,1
458,50,11,0.232164901754084,1
458,51,11,0.213097966851231,1
458,52,11,0.115277666944381,1
459,50,11,0.204842972447126,1
459,51,11,0.187808889536669,1
460,51,11,0.154003936676638,1
461,54,11,0.117892884973275,1
462,54,11,0.121502082291277,1
462,92,11,0.12280979729752,1
462,93,11,0.137059546379608,1
462,94,11,0.138946565437121,1
463,92,11,0.157323847051859,1
463,93,11,0.138707636374463,1
463,94,11,0.124796531081647,1
464,92,11,0.140938469265535,1
464,93,11,0.115669553946009,1
464,94,11,0.114571667365898,1
465,94,11,0.123366748856631,1
466,53,11,0.121572366629109,1
466,54,11,0.233164569269596,4
466,55,11,0.237261953024624,4
466,56,11,0.142644077475198,1
466,93,11,0.114283181250023,1
466,94,11,0.148000679101216,1
467,53,11,0.177104189182072,4
467,54,11,0.410402684974763,4
467,55,11,0.447578012081934,4
467,56,11,0.24270138135104,4
467,57,11,0.118922041761898,1
467,93,11,0.12023334871235,1
467,94,11,0.179245659211973,1
468,53,11,0.14065353976327,1
468,54,11,0.318726046442873,4
468,55,11,0.372298351549633,4
468,56,11,0.21997511501052,4
468,57,11,0.121709814435216,1
468,58,11,0.128437419946752,1
468,59,11,0.185847711552324,1
468,60,11,0.158839800607291,1
468,93,11,0.148173669489691,1
468,94,11,0.203014472638053,1
468,95,11,0.207955244893339,1
469,54,11,0.143381627278388,1
469,55,11,0.183716946693852,4
469,56,11,0.165684444615706,1
469,57,11,0.154646835805706,1
469,58,11,0.186737736442966,1
469,59,11,0.29336444718589,2
469,60,11,0.284738646370761,2
469,61,11,0.145945074203208,1
469,93,11,0.141028939152135,1
469,94,11,0.179317863179006,1
469,95,11,0.172636081454083,1
469,96,11,0.149774416482186,1
470,55,11,0.151638647303489,1
470,56,11,0.252766338776727,5
470,57,11,0.290032559737683,5
470,58,11,0.243600450874969,1
470,59,11,0.272580021215318,2
470,60,11,0.275697192837894,2
470,61,11,0.164255887184782,1
470,95,11,0.126704088993915,1
470,96,11,0.125725513845873,1
470,97,11,0.140378714812255,1
471,55,11,0.20956938218277,5
471,56,11,0.365542669988936,5
471,57,11,0.384931301770515,5
471,58,11,0.251219282517506,5
471,59,11,0.180104322307768,1
471,60,11,0.170877689329848,1
471,61,11,0.147667028703238,1
471,62,11,0.138521773871166,1
471,97,11,0.129923436708153,1
472,54,11,0.117222439754027,1
472,55,11,0.205387935156386,1
472,56,11,0.308215287521826,5
472,57,11,0.287891713881694,5
472,58,11,0.17569095345415,1
472,61,11,0.13746737925815,1
472,62,11,0.181152793157057,1
472,63,11,0.146024626934786,1
472,96,11,0.11515814352872,1
472,97,11,0.138093755443856,1
473,55,11,0.16263636786747,1
473,56,11,0.203654922178939,1
473,57,11,0.167035545597247,1
473,62,11,0.144106163644362,1
473,63,11,0.126054312174953,1
474,56,11,0.134515248639324,1
483,69,11,0.118912879359949,1
483,70,11,0.129955387346313,1
484,70,11,0.129393100866787,1
484,76,11,0.114465969991226,1
484,77,11,0.114095787754113,1
484,91,11,0.131082445224146,1
486,80,11,0.136453614833726,1
487,79,11,0.16620676041115,1
487,80,11,0.122893424824824,1
487,85,11,0.11542580814505,1
487,86,11,0.114843312563024,1
488,79,11,0.124776533962739,1
488,84,11,0.133067683346258,1
488,85,11,0.168159565043585,1
489,79,11,0.137127899311374,1
489,84,11,0.126969551336255,1
450,51,12,0.11556258466978,1
450,52,12,0.184114203946494,1
450,53,12,0.168823014804275,1
451,51,12,0.15419050579191,1
451,52,12,0.245613564839516,1
451,53,12,0.212114198105168,1
452,51,12,0.140857091119687,1
452,52,12,0.190678299446892,1
452,53,12,0.152074544454325,1
455,51,12,0.115723845299462,1
456,50,12,0.149585174018273,1
456,51,12,0.136170157439743,1
457,50,12,0.190925625415193,1
457,51,12,0.163076481136428,1
458,50,12,0.184722667518621,1
458,51,12,0.176218274417754,1
459,50,12,0.147303429734364,1
459,51,12,0.147876362500988,1
460,50,12,0.134333802460875,1
460,51,12,0.12804755856612,1
461,51,12,0.125273941686046,1
462,92,12,0.11749831284614,1
462,93,12,0.149619421145354,1
462,94,12,0.148658770387758,1
463,92,12,0.156443962043066,1
463,94,12,0.153873708089548,1
464,92,12,0.146531939002616,1
464,94,12,0.14923164427005,1
465,93,12,0.126606199681572,1
465,94,12,0.142574605741138,1
466,54,12,0.170701884270337,1
466,55,12,0.190391320769898,4
466,56,12,0.126667957568234,1
467,53,12,0.134802910374562,1
467,54,12,0.320333164720013,4
467,55,12,0.38085864943463,4
467,56,12,0.220337724722629,4
467,93,12,0.114864134062569,1
468,53,12,0.114130729716303,1
468,54,12,0.265352841037084,1
468,55,12,0.331382173536552,4
468,56,12,0.201621834649218,1
468,93,12,0.116885927577549,1
468,94,12,0.170281497252363,1
469,54,12,0.122612417019023,1
469,55,12,0.159134834660806,1
469,56,12,0.140880362207414,1
469,57,12,0.136630208943277,1
469,58,12,0.159437099710204,1
469,59,12,0.196632070630295,1
469,60,12,0.177733839336599,1
469,94,12,0.122024374532988,1
469,95,12,0.127937409536002,1
469,96,12,0.132471444161308,1
470,55,12,0.119854322048677,1
470,56,12,0.198951312456373,1
470,57,12,0.242338277010549,5
470,58,12,0.231416387688407,1
470,59,12,0.225256803990266,1
470,60,12,0.195437460647601,1
470,96,12,0.116646068142456,1
471,55,12,0.169594328883028,1
471,56,12,0.30878948041314,5
471,57,12,0.329515540234533,5
471,58,12,0.242235252984517,5
471,59,12,0.18189398201192,1
471,60,12,0.153775736339141,1
471,61,12,0.122425659473891,1
472,55,12,0.192932273880164,6
472,56,12,0.32271058426541,6
472,57,12,0.292206380819197,5
472,58,12,0.17851743668686,1
472,59,12,0.117501209955239,1
472,60,12,0.11483447991333,1
472,61,12,0.138762245703305,1
472,62,12,0.151678488442042,1
472,97,12,0.139043854129285,1
473,55,12,0.189876942582313,1
473,56,12,0.290641612153123,6
473,57,12,0.235234848142962,1
473,58,12,0.130592845563169,1
473,61,12,0.118863451852261,1
473,62,12,0.138984852029328,1
473,96,12,0.123726850096226,1
474,56,12,0.198605849861537,1
474,57,12,0.154774685465811,1
474,95,12,0.132899333043089,1
475,94,12,0.121449934327483,1
477,94,12,0.118822727448738,1
478,94,12,0.115991933882977,1
479,94,12,0.116395974610584,1
483,70,12,0.117637609620249,1
484,70,12,0.133362305209454,1
484,71,12,0.114433489394084,1
484,91,12,0.117068633880688,1
485,77,12,0.137348762661191,1
485,78,12,0.123218631209694,1
486,79,12,0.151273882424855,1
487,79,12,0.145938891348422,1
487,80,12,0.117263293703079,1
488,79,12,0.138768510996154,1
488,80,12,0.119642562216478,1
488,84,12,0.113855869434689,1
488,85,12,0.148262384623219,1
489,79,12,0.160534444554467,1
489,80,12,0.126975934397767,1
489,83,12,0.117802038226954,1
489,84,12,0.140338449706516,1
490,84,12,0.145685570955195,1
450,52,13,0.197218876545372,1
450,53,13,0.188193451327484,1
451,51,13,0.153298643710131,1
451,52,13,0.271904311736853,1
451,53,13,0.243135594410002,1
452,51,13,0.137363577958945,1
452,52,13,0.203092953674802,1
452,53,13,0.164985016528596,1
453,52,13,0.115325775443048,1
457,50,13,0.168856673088042,1
457,51,13,0.148014646464599,1
458,50,13,0.153324694138296,1
458,51,13,0.149506728312123,1
459,51,13,0.116689312795358,1
461,51,13,0.115700550658002,1
462,94,13,0.134953913353732,1
465,94,13,0.138079929402869,1
466,54,13,0.117313451376475,1
466,55,13,0.151593530128851,1
466,56,13,0.11989640079182,1
467,54,13,0.206203294714948,1
467,55,13,0.269881258097184,4
467,56,13,0.184431025202588,1
468,54,13,0.191120850527166,1
468,55,13,0.243492268581516,1
468,56,13,0.168589244009037,1
468,94,13,0.137685157069007,1
469,55,13,0.127592264916555,1
469,56,13,0.122350570174625,1
469,57,13,0.133152959634838,1
469,58,13,0.144201980228243,1
469,59,13,0.126439144833691,1
469,96,13,0.117894675056946,1
470,56,13,0.15066651410129,1
470,57,13,0.199041805896705,1
470,58,13,0.218134155276945,1
470,59,13,0.181960862835404,1
470,60,13,0.128056650306872,1
470,96,13,0.115883916465651,1
471,55,13,0.125050852508505,1
471,56,13,0.223630560082321,1
471,57,13,0.248550479747135,5
471,58,13,0.223208359426943,1
471,59,13,0.181298508323277,1
471,60,13,0.137349410388835,1
471,96,13,0.124848584830511,1
472,55,13,0.159528605961035,1
472,56,13,0.291826270683828,6
472,57,13,0.270368584822973,1
472,58,13,0.174185316433562,1
472,59,13,0.12646911695832,1
472,60,13,0.125861583758627,1
472,61,13,0.135945925906176,1
472,62,13,0.120299169617871,1
472,96,13,0.126605728606922,1
473,55,13,0.193826679765054,7
473,56,13,0.351115302209934,7
473,57,13,0.305456462385773,7
473,58,13,0.159829504893947,1
473,61,13,0.139952133162628,1
473,62,13,0.140987260822445,1
473,96,13,0.11991440762033,1
473,97,13,0.14843992088207,1
474,55,13,0.154548840501566,1
474,56,13,0.255209449682114,7
474,57,13,0.218081277147443,1
474,61,13,0.119789902590242,1
474,62,13,0.132038632549431,1
474,95,13,0.118090218144307,1
475,56,13,0.120395304177141,1
484,70,13,0.127837141296674,1
484,92,13,0.132632245493205,1
485,70,13,0.126105035137929,1
485,91,13,0.125451077531444,1
486,78,13,0.136634366177066,1
487,79,13,0.132719547402782,1
487,80,13,0.114200566533218,1
488,79,13,0.156650787368303,1
488,80,13,0.144826837198202,1
488,81,13,0.133462891424171,1
488,85,13,0.126996614574918,1
489,79,13,0.177167313185219,1
489,80,13,0.165695950614041,1
489,81,13,0.152434033296875,1
489,82,13,0.142497408382811,1
489,83,13,0.145173465702798,1
489,84,13,0.155556645831663,1
490,81,13,0.137140948079188,1
490,82,13,0.143714276642734,1
490,83,13,0.164546669789578,1
450,52,14,0.179277668734465,1
450,53,14,0.176819966291782,1
451,51,14,0.136006470775612,1
451,52,14,0.258301277488501,1
451,53,14,0.236142797424051,1
452,51,14,0.124881206750048,1
452,52,14,0.198793690878365,1
452,53,14,0.162194853151428,1
453,52,14,0.120139051344216,1
457,50,14,0.1411695078278,1
457,51,14,0.132494833017698,1
458,50,14,0.127075814000508,1
458,51,14,0.127204217173328,1
466,55,14,0.129134551544941,1
467,54,14,0.136902501868047,1
467,55,14,0.183669568360893,1
467,56,14,0.146179645825351,1
467,94,14,0.150328400271,1
468,54,14,0.138974511940753,1
468,55,14,0.165831914534999,1
468,56,14,0.134985133826184,1
468,95,14,0.133317517787072,1
468,96,14,0.139321034453552,1
469,57,14,0.119604346285468,1
470,56,14,0.118115291092572,1
470,57,14,0.157435350421598,1
470,58,14,0.173999724798189,1
470,59,14,0.126603644101594,1
470,96,14,0.117717704087675,1
471,56,14,0.150290596530309,1
471,57,14,0.174537044321247,1
471,58,14,0.178571115643268,1
471,59,14,0.148112465115744,1
471,96,14,0.137083995153961,1
472,55,14,0.12124394515975,1
472,56,14,0.221670606892067,1
472,57,14,0.218133118912714,1
472,58,14,0.147675778914868,1
472,59,14,0.116540747627503,1
472,60,14,0.117472368409772,1
472,96,14,0.143312438189117,1
473,55,14,0.163256678967054,1
473,56,14,0.327470864268413,7
473,57,14,0.316025940761986,1
473,58,14,0.162792552667795,1
473,60,14,0.122091019819147,1
473,61,14,0.151976714026314,1
473,62,14,0.137680540537434,1
473,96,14,0.127743868515905,1
474,55,14,0.138130852572572,1
474,56,14,0.258780807928827,1
474,57,14,0.251527436000034,1
474,58,14,0.138683741112823,1
474,60,14,0.121329492316254,1
474,61,14,0.164123315001306,1
474,62,14,0.167922732263121,1
474,63,14,0.116356639877279,1
474,96,14,0.144617256086261,1
475,56,14,0.115869242490293,1
475,61,14,0.114617844458499,1
475,62,14,0.120070368660195,1
475,95,14,0.146723689939042,1
477,95,14,0.132713176118136,1
480,94,14,0.125694069612962,1
481,94,14,0.141329414117862,1
485,70,14,0.136286018249997,1
485,74,14,0.12248525041716,1
487,79,14,0.11910543112328,1
487,88,14,0.11497308185233,1
488,79,14,0.161600321612085,1
488,80,14,0.15959006942604,1
488,81,14,0.156023021512378,1
488,82,14,0.126114762829459,1
489,79,14,0.181326348835112,1
489,80,14,0.197765382024112,1
489,81,14,0.192775523790259,1
489,82,14,0.165911526150908,1
489,83,14,0.159739105668545,1
490,80,14,0.17129216436096,1
490,81,14,0.166896625682858,1
490,82,14,0.166289540004083,1
450,52,15,0.146071593077426,1
450,53,15,0.149207548801685,1
451,51,15,0.115297452079696,1
451,52,15,0.216677969317777,1
451,53,15,0.205061339101297,1
452,52,15,0.18284961582449,1
452,53,15,0.156909642888671,1
453,52,15,0.126478232252804,1
457,50,15,0.116061252517776,1
457,51,15,0.119280588455147,1
466,55,15,0.114400949912611,1
467,55,15,0.134607414394666,1
467,56,15,0.1159229214467,1
467,94,15,0.127377348884198,1
468,55,15,0.121006335106113,1
468,56,15,0.115655975219212,1
468,95,15,0.116592954475628,1
468,96,15,0.130386314659589,1
468,97,15,0.145698867037201,1
469,56,15,0.114433948691868,1
470,57,15,0.131479431608864,1
470,58,15,0.129224738786751,1
470,96,15,0.11943643172635,1
471,57,15,0.127170134922375,1
471,58,15,0.134510113925636,1
471,96,15,0.139546690987937,1
472,56,15,0.147399399417507,1
472,57,15,0.156048659750223,1
472,58,15,0.115473233585474,1
472,96,15,0.147663507420227,1
473,55,15,0.121398222107741,1
473,56,15,0.242619155270821,1
473,57,15,0.259555843497319,1
473,58,15,0.139946574481754,1
473,60,15,0.132676597171536,1
473,61,15,0.164130051368806,1
473,62,15,0.139106236189858,1
473,96,15,0.136015904045485,1
474,56,15,0.21612900247399,1
474,57,15,0.236190682162259,1
474,58,15,0.133879109431489,1
474,60,15,0.158228769678319,1
474,61,15,0.230455112756899,1
474,62,15,0.210010779130149,1
474,63,15,0.117399716921821,1
474,96,15,0.13966198650861,1
475,60,15,0.117747440674978,1
475,61,15,0.168905040677767,1
475,62,15,0.153124711172355,1
475,95,15,0.123892880356743,1
476,95,15,0.132918482227625,1
477,95,15,0.129112776119229,1
481,94,15,0.119861859243083,1
482,94,15,0.125466964524028,1
484,93,15,0.12250892191834,1
485,70,15,0.140445583858872,1
486,77,15,0.130532583338523,1
487,78,15,0.141745914769971,1
488,79,15,0.16141376427368,1
488,80,15,0.176078942313046,1
488,81,15,0.177515837765282,1
488,82,15,0.133297921081618,1
489,79,15,0.19198493098144,1
489,82,15,0.180713928235922,1
490,79,15,0.174376655179668,1
490,81,15,0.203292901310143,1
451,52,16,0.159575419004414,1
451,53,16,0.152949812931546,1
452,52,16,0.157626430076647,1
452,53,16,0.142795492644688,1
453,52,16,0.138392652309505,1
453,53,16,0.13154558226664,1
457,51,16,0.116121055444638,1
461,51,16,0.116295199966007,1
467,94,16,0.128068521388061,1
468,96,16,0.134571212307786,1
470,96,16,0.115539348912651,1
471,96,16,0.130473781445293,1
472,96,16,0.147353705176423,1
472,97,16,0.187074095520184,1
473,56,16,0.153819534504758,1
473,57,16,0.177416817873778,1
473,60,16,0.122119060537709,1
473,61,16,0.156363396500989,1
473,62,16,0.127219691975592,1
473,96,16,0.156260242929429,1
474,60,16,0.173842515410501,1
474,61,16,0.268465961417667,1
474,62,16,0.222375334568994,1
474,96,16,0.156841007312115,1
475,60,16,0.134688133036004,1
475,61,16,0.20333150587774,1
475,62,16,0.164080411877525,1
475,95,16,0.123391291845914,1
476,95,16,0.142828232332887,1
481,95,16,0.15615874989601,1
482,95,16,0.150917361352602,1
483,94,16,0.131402128258741,1
484,93,16,0.118700460023239,1
485,70,16,0.129334487403417,1
486,74,16,0.126188745103297,1
487,78,16,0.128246940911882,1
488,79,16,0.162694616247987,1
488,82,16,0.128027302356155,1
451,52,17,0.114624604379732,1
451,53,17,0.114504845426746,1
452,52,17,0.133513967693135,1
452,53,17,0.133103002168168,1
453,52,17,0.145920036585542,1
453,53,17,0.149941000255417,1
457,51,17,0.117521065751752,1
460,50,17,0.125475585190129,1
460,51,17,0.1346102643963,1
461,50,17,0.127004752389503,1
461,51,17,0.133683625228459,1
462,51,17,0.116788144257002,1
463,51,17,0.113833787810454,1
463,52,17,0.123807238985309,1
467,94,17,0.128699572989672,1
468,96,17,0.155293927499162,1
469,96,17,0.120738105200202,1
469,97,17,0.13675888298402,1
470,97,17,0.124109928001893,1
471,96,17,0.118131590275474,1
471,97,17,0.13917488354328,1
472,96,17,0.147618684667246,1
472,97,17,0.186239304132295,1
473,57,17,0.115646141535886,1
473,61,17,0.137755983142688,1
473,96,17,0.181010940802969,1
474,57,17,0.120620006785359,1
474,60,17,0.167500449169679,1
474,61,17,0.262605180370244,1
474,62,17,0.201354429123945,1
474,96,17,0.180195746120535,1
475,60,17,0.134853327139016,1
475,61,17,0.204540942935053,1
475,62,17,0.151518417275853,1
475,95,17,0.131066970421882,1
480,95,17,0.16333022549684,1
481,95,17,0.154382068298476,1
481,96,17,0.191162210881466,1
482,95,17,0.136903973976329,1
482,96,17,0.174211955705039,1
483,94,17,0.114898322305319,1
485,70,17,0.119668271115521,1
485,71,17,0.119734916401679,1
486,74,17,0.131557971529944,1
487,75,17,0.134608603858158,1
487,78,17,0.117038614648594,1
488,82,17,0.11682293311993,1
452,53,18,0.115099871594472,1
453,52,18,0.132893821469679,1
453,53,18,0.139997191452935,1
460,50,18,0.137015442015468,1
460,51,18,0.133271976645249,1
461,50,18,0.136568992792464,1
461,51,18,0.132424171820145,1
462,51,18,0.119639629776779,1
463,51,18,0.125178172209629,1
463,52,18,0.128211834073564,1
467,94,18,0.123038610032062,1
467,95,18,0.145065778037727,1
467,96,18,0.178908346208589,1
468,96,18,0.158545720479942,1
469,96,18,0.12496351526833,1
471,97,18,0.13001533159557,1
472,96,18,0.148959834196797,1
473,95,18,0.116584816661044,1
474,60,18,0.135168405418904,1
474,61,18,0.211693763979729,1
474,62,18,0.153834773769697,1
474,95,18,0.122906261609046,1
475,61,18,0.168718342016966,1
475,62,18,0.120017914497878,1
475,95,18,0.149560572144659,1
481,95,18,0.177406489562069,1
482,95,18,0.145912346291875,1
482,96,18,0.19418800579874,1
483,94,18,0.118386159016524,1
486,70,18,0.189760210283955,1
486,73,18,0.170731220444188,1
486,74,18,0.127672088516057,1
486,90,18,0.119650935568388,1
487,74,18,0.163931293196957,1
487,75,18,0.115527607376991,1
487,76,18,0.121140932910585,1
487,77,18,0.123230078323698,1
487,89,18,0.124629311357638,1
488,73,18,0.210185147411977,1
488,74,18,0.151991729530794,1
488,75,18,0.161633131961482,1
488,81,18,0.160439546566153,1
489,82,18,0.128381503385755,1
490,82,18,0.134426992803581,1
453,53,19,0.117921573419481,1
457,50,19,0.115241099774647,1
457,51,19,0.122185623385804,1
460,50,19,0.139697788182037,1
460,51,19,0.125313818155198,1
461,50,19,0.139557831903418,1
461,51,19,0.128905903686527,1
462,51,19,0.116914639577487,1
463,51,19,0.123280235997094,1
463,52,19,0.119973727695675,1
463,92,19,0.128487766050008,1
466,93,19,0.131074919806607,1
467,94,19,0.117636149288833,1
467,95,19,0.134415333705985,1
468,95,19,0.114372638326125,1
468,96,19,0.152684197489945,1
469,96,19,0.126819749597443,1
472,96,19,0.157755115894257,1
473,95,19,0.135735461529265,1
474,61,19,0.157001985297006,1
475,61,19,0.13263682669418,1
479,94,19,0.123744103205296,1
480,94,19,0.119548618154331,1
481,94,19,0.119898179098625,1
482,95,19,0.159535083237478,1
483,94,19,0.123876322082783,1
484,92,19,0.125433671323114,1
485,91,19,0.133119324904803,1
486,70,19,0.149251594281493,1
486,71,19,0.142120843084186,1
486,72,19,0.143143228174711,1
486,73,19,0.168172825794993,1
486,74,19,0.131737368533664,1
486,90,19,0.134934175325882,1
487,73,19,0.219549263526602,1
487,74,19,0.161207327585029,1
487,88,19,0.122908098800182,1
487,89,19,0.145346726959197,1
488,73,19,0.186790190605283,1
488,74,19,0.139524703578632,1
488,75,19,0.133285378719052,1
488,81,19,0.130335591696612,1
490,82,19,0.135664246818998,1
491,81,19,0.137855120802854,1
456,50,20,0.113836202068037,1
457,50,20,0.1253763297613,1
457,51,20,0.13223691964663,1
460,50,20,0.135041756999156,1
460,51,20,0.114706983559212,1
461,50,20,0.135975462286753,1
461,51,20,0.119990415515164,1
463,92,20,0.126222344502733,1
467,94,20,0.114578639270724,1
467,95,20,0.126783194204576,1
468,95,20,0.121157738498736,1
468,96,20,0.1346430040845,1
469,96,20,0.126073473136356,1
472,95,20,0.119856806967458,1
482,94,20,0.14386365441436,1
485,90,20,0.119001323625553,1
486,70,20,0.117972249274993,1
486,71,20,0.116527698859688,1
486,72,20,0.132790467691392,1
486,73,20,0.173492860251277,1
486,74,20,0.142639531604822,1
486,89,20,0.124681035354247,1
487,70,20,0.182888927004062,1
487,71,20,0.171948548001894,1
487,72,20,0.17368342172421,1
487,73,20,0.220884171317037,1
487,74,20,0.170922370760434,1
487,88,20,0.138631593149029,1
487,89,20,0.174773288258398,1
488,72,20,0.160505426356005,1
488,73,20,0.176021789181092,1
488,74,20,0.140865806000718,1
488,75,20,0.119735564129324,1
488,76,20,0.137815668300887,1
489,74,20,0.121474159341377,1
489,75,20,0.166085187820761,1
490,82,20,0.141629735984328,1
491,81,20,0.158105430557991,1
455,50,21,0.113820845034435,1
456,50,21,0.13287984232943,1
456,51,21,0.129001626055478,1
457,50,21,0.129047732486881,1
457,51,21,0.133494076566024,1
460,50,21,0.12545515232717,1
461,50,21,0.127153894623804,1
461,51,21,0.11445632473776,1
462,92,21,0.113874158907989,1
463,92,21,0.117461839891336,1
466,95,21,0.146148472460364,1
467,95,21,0.115861646411556,1
471,96,21,0.121419078937885,1
472,95,21,0.120445084990817,1
475,94,21,0.115131645579638,1
482,93,21,0.114397935034849,1
483,93,21,0.125402403743197,1
484,90,21,0.134215539169904,1
486,72,21,0.122947586632748,1
486,73,21,0.173579373110814,1
486,74,21,0.152973354887197,1
486,89,21,0.137140500558271,1
487,70,21,0.153326590213763,1
487,71,21,0.158563209126336,1
487,72,21,0.168860971644227,1
487,73,21,0.22645295674244,1
487,74,21,0.188447419448355,1
487,88,21,0.146111387108515,1
488,71,21,0.179416482657057,1
488,72,21,0.164254238423505,1
488,73,21,0.177126317913772,1
488,74,21,0.152337368778623,1
488,75,21,0.117423529745396,1
488,76,21,0.117841537836386,1
488,77,21,0.123884259690642,1
489,74,21,0.129815230860967,1
489,75,21,0.152706491097773,1
489,84,21,0.121995686086782,1
490,81,21,0.157159689313078,1
490,82,21,0.143389447117584,1
491,81,21,0.183472576718982,1
455,50,22,0.115340802724394,1
455,51,22,0.128392632524369,1
456,50,22,0.13927615281624,1
456,51,22,0.15128749648225,1
457,50,22,0.123101050976966,1
457,51,22,0.132166599978199,1
458,82,22,0.126878539713807,1
458,83,22,0.128504477423229,1
459,83,22,0.1396440150107,1
465,92,22,0.118224839502511,1
466,93,22,0.163078235889501,1
472,95,22,0.12042892713031,1
474,94,22,0.121334968559065,1
482,93,22,0.135039849146823,1
483,91,22,0.118580689293387,1
484,90,22,0.174692546063328,1
485,89,22,0.121711569188288,1
486,72,22,0.119067580275125,1
486,73,22,0.168754791418037,1
486,74,22,0.16066157582573,1
487,70,22,0.142854777389434,1
487,71,22,0.16837156041311,1
487,72,22,0.1775191823953,1
487,73,22,0.22929136994067,1
487,74,22,0.206905125282774,1
487,75,22,0.118954922772493,1
488,70,22,0.157411302060697,1
488,71,22,0.205853498233329,1
488,72,22,0.19047577267784,1
488,73,22,0.18809953081907,1
488,74,22,0.16787674360038,1
488,75,22,0.126213982927689,1
488,76,22,0.118983340350775,1
488,77,22,0.12061383570744,1
488,86,22,0.114954674610367,1
489,73,22,0.139292817081996,1
489,74,22,0.143794700862415,1
489,75,22,0.149789114011277,1
489,81,22,0.113768803062437,1
490,81,22,0.154388133384599,1
491,80,22,0.162411629928654,1
436,66,23,0.113964299042334,1
437,59,23,0.123361826126535,1
438,58,23,0.116409129370195,1
455,51,23,0.146161003046063,1
455,52,23,0.123054061280594,1
456,50,23,0.139557831903418,1
456,51,23,0.180178752102524,1
456,52,23,0.136807003259554,1
457,50,23,0.118969938276973,1
457,51,23,0.142581318554905,1
457,52,23,0.116238141048983,1
458,51,23,0.116188089367383,1
458,82,23,0.151015450871672,1
458,83,23,0.14984186259525,1
459,51,23,0.120074832092507,1
459,82,23,0.142350680406093,1
459,83,23,0.178409466377,1
459,84,23,0.12976394260841,1
460,51,23,0.12112325583433,1
462,92,23,0.113818925405235,1
464,93,23,0.127485872706773,1
466,51,23,0.115886036301578,1
466,93,23,0.158770222881434,1
474,94,23,0.135418110314189,1
480,92,23,0.121092859742516,1
482,91,23,0.126171185795705,1
483,90,23,0.11779119173313,1
486,73,23,0.147033880819432,1
486,74,23,0.154979920914103,1
487,70,23,0.132446029683921,1
487,71,23,0.167819720013955,1
487,72,23,0.169175343312139,1
487,73,23,0.207496182646571,1
487,74,23,0.212435164818185,1
487,75,23,0.145443097055793,1
487,87,23,0.121650235268813,1
488,70,23,0.136991629191893,1
488,71,23,0.207074335297181,1
488,72,23,0.205561007982925,1
488,73,23,0.197063704555546,1
488,74,23,0.186752245542197,1
488,75,23,0.151818715588586,1
488,76,23,0.137734937882683,1
488,77,23,0.126381343974093,1
488,86,23,0.133181718742242,1
489,73,23,0.174167780679702,1
489,74,23,0.170774606419485,1
489,80,23,0.137950772510608,1
489,85,23,0.146647446506883,1
490,81,23,0.153497920064096,1
435,66,24,0.121029017350527,1
436,66,24,0.119705203368108,1
436,67,24,0.140674325932217,1
437,67,24,0.113819796893338,1
437,68,24,0.135571998625593,1
455,51,24,0.152485981053943,1
455,52,24,0.144284536060717,1
456,50,24,0.133956306789816,1
456,51,24,0.191415119084374,1
456,52,24,0.162176010165414,1
457,50,24,0.121458401894323,1
457,51,24,0.158028716051181,1
457,52,24,0.140551681646998,1
458,51,24,0.127420805520693,1
458,52,24,0.123155778074471,1
458,82,24,0.147944020597645,1
458,83,24,0.148393178499889,1
459,51,24,0.134010162399217,1
459,52,24,0.127123427870793,1
459,82,24,0.144526750869062,1
459,83,24,0.178206044566111,1
459,84,24,0.13122613476937,1
460,51,24,0.136256882282873,1
460,52,24,0.12809924723213,1
461,51,24,0.122031841066196,1
461,52,24,0.118502714661888,1
466,51,24,0.134591609840146,1
466,93,24,0.142119995149815,1
467,52,24,0.117191160397244,1
474,94,24,0.141175926219911,1
475,93,24,0.118304651325147,1
477,93,24,0.115597008449854,1
478,92,24,0.123954131838155,1
479,92,24,0.143593858185238,1
480,91,24,0.11951941152601,1
483,90,24,0.142167232160379,1
484,89,24,0.125387470676781,1
486,70,24,0.131209635379741,1
486,71,24,0.120013085982712,1
486,73,24,0.130000445636619,1
486,74,24,0.146241368381413,1
486,75,24,0.130746639659643,1
486,88,24,0.117372724344356,1
487,70,24,0.134722757022804,1
487,71,24,0.171806860523935,1
487,72,24,0.166299585671002,1
487,73,24,0.185271775684804,1
487,74,24,0.210697912168885,1
487,75,24,0.18654859997085,1
487,76,24,0.13519555109563,1
487,87,24,0.133730461825571,1
488,70,24,0.12236937783004,1
488,71,24,0.196030520078662,1
488,72,24,0.210574773255283,1
488,76,24,0.168990328743213,1
488,77,24,0.139504282492539,1
488,78,24,0.117514482483513,1
488,85,24,0.123458219776863,1
488,86,24,0.1573688582347,1
489,73,24,0.196526738338476,1
489,80,24,0.127543685343238,1
489,84,24,0.124044919700144,1
489,85,24,0.150860137559451,1
435,66,25,0.128701928362924,1
435,67,25,0.137643890929637,1
436,66,25,0.121275460053859,1
436,67,25,0.139636183394637,1
436,68,25,0.168489281968233,1
437,67,25,0.117549836636022,1
437,68,25,0.139073013650142,1
437,69,25,0.119187021252721,1
454,52,25,0.122876371922481,1
455,51,25,0.154864601839697,1
455,52,25,0.160741399425232,1
455,53,25,0.124938348105135,1
456,50,25,0.123740040186436,1
456,51,25,0.186132817707583,1
456,52,25,0.181647951498908,1
456,53,25,0.124525062537515,1
457,50,25,0.118851992961391,1
457,51,25,0.168884631368541,1
457,52,25,0.175050068169213,1
457,53,25,0.126765305144729,1
458,51,25,0.138368863039662,1
458,52,25,0.147566171620598,1
458,53,25,0.11785720106851,1
458,82,25,0.138870899071408,1
458,83,25,0.145919070882508,1
459,51,25,0.136089968757387,1
459,52,25,0.136342653199836,1
459,82,25,0.133293634302299,1
459,83,25,0.164488350747864,1
459,84,25,0.134330893574909,1
460,51,25,0.139580054850048,1
460,52,25,0.140533085975175,1
461,51,25,0.121313876191595,1
461,52,25,0.127773993739795,1
466,52,25,0.132048619332018,1
466,93,25,0.11920427436179,1
474,93,25,0.119506080113405,1
475,92,25,0.120365862011494,1
475,93,25,0.135011372684209,1
476,93,25,0.117349665240221,1
477,91,25,0.117528308524501,1
477,92,25,0.136445712556467,1
477,93,25,0.12383330119034,1
478,91,25,0.131394626394934,1
478,92,25,0.179613191654178,1
479,91,25,0.116643076818426,1
484,89,25,0.142503909212986,1
486,69,25,0.117865597974153,1
486,70,25,0.151948920621943,1
486,71,25,0.14858170257496,1
486,72,25,0.122915953969977,1
486,73,25,0.124147661081386,1
486,74,25,0.137561417535226,1
486,75,25,0.144542802737773,1
486,88,25,0.121813026891108,1
487,70,25,0.143341256180853,1
487,71,25,0.177945481400136,1
487,72,25,0.171211999232337,1
487,76,25,0.159811757156495,1
487,77,25,0.116936026366613,1
487,86,25,0.120780490141868,1
487,87,25,0.136966544466762,1
488,71,25,0.172225728326162,1
488,78,25,0.126111936381557,1
488,83,25,0.132611577092921,1
488,84,25,0.131028554284146,1
488,85,25,0.142170223484409,1
488,86,25,0.175776583048718,1
489,80,25,0.121018689038818,1
489,82,25,0.120292291927976,1
489,83,25,0.145873152880965,1
489,84,25,0.150323418656572,1
489,85,25,0.160780710604804,1
490,83,25,0.13813416187199,1
435,63,26,0.119895117113398,1
435,66,26,0.134474206260413,1
436,66,26,0.117175791586776,1
436,67,26,0.136956463469244,1
437,68,26,0.134861865367053,1
454,51,26,0.115657541542425,1
454,52,26,0.129209346422551,1
454,53,26,0.116064750247055,1
455,51,26,0.158436690252118,1
455,52,26,0.175767703291559,1
455,53,26,0.139956101966558,1
456,50,26,0.115337022350325,1
456,51,26,0.174547148872497,1
456,52,26,0.200756541177719,1
456,53,26,0.154072631137526,1
457,51,26,0.167867345661106,1
457,52,26,0.206991261282591,1
457,53,26,0.165199673469895,1
458,51,26,0.139797420470587,1
458,52,26,0.164516897871675,1
458,53,26,0.138587547669222,1
458,82,26,0.119578931808082,1
458,83,26,0.134597427612078,1
459,51,26,0.124705272145007,1
459,52,26,0.132141432815004,1
459,53,26,0.116041149407072,1
459,83,26,0.134506922394879,1
459,84,26,0.127453992729811,1
460,51,26,0.127465416290082,1
460,52,26,0.137753439339576,1
460,53,26,0.120334829968902,1
461,52,26,0.124225411952426,1
465,89,26,0.114659711218049,1
465,90,26,0.121888905240413,1
466,52,26,0.129644831383069,1
466,53,26,0.116299098108739,1
466,90,26,0.122732493947397,1
466,91,26,0.118172691538717,1
467,91,26,0.116709722104584,1
474,93,26,0.12754562852617,1
475,92,26,0.12854804005152,1
475,93,26,0.144355432795595,1
476,92,26,0.119835950137314,1
476,93,26,0.124477425113498,1
477,91,26,0.138969871855447,1
477,92,26,0.15037382364416,1
477,93,26,0.129179550950916,1
478,91,26,0.150597525218746,1
478,92,26,0.201722173549743,1
479,91,26,0.133823864151869,1
483,89,26,0.128234999169495,1
484,88,26,0.126767742956044,1
485,70,26,0.11882199728303,1
485,71,26,0.121890883753945,1
485,88,26,0.13333826862542,1
486,69,26,0.118069608628354,1
486,70,26,0.167915677920232,1
486,71,26,0.185153053096049,1
486,72,26,0.143643603668315,1
486,73,26,0.133545988992493,1
486,74,26,0.145178741738882,1
486,76,26,0.126301449713393,1
486,88,26,0.135143450239301,1
487,70,26,0.149518422740318,1
487,71,26,0.188346680134377,1
487,72,26,0.178748475249125,1
487,77,26,0.148344316281781,1
487,78,26,0.123001960424265,1
487,82,26,0.134148681900153,1
487,83,26,0.159643135985402,1
487,84,26,0.137109291862685,1
487,85,26,0.133439926534966,1
487,86,26,0.142323746712959,1
487,87,26,0.145993524230997,1
488,78,26,0.137761482939231,1
488,79,26,0.120196852203814,1
488,81,26,0.115377311009797,1
488,82,26,0.172462231354371,1
488,86,26,0.184630242672222,1
489,79,26,0.122936740138924,1
489,81,26,0.115620244206983,1
489,82,26,0.151228871242014,1
436,67,27,0.132301127121473,1
437,68,27,0.124885505306232,1
451,53,27,0.118891563232021,1
452,52,27,0.11556787248273,1
452,53,27,0.119900216496488,1
454,52,27,0.128941917343546,1
454,53,27,0.117663012320769,1
455,51,27,0.159086455294215,1
455,52,27,0.178466183764902,1
455,53,27,0.151935483217542,1
455,54,27,0.123302718034782,1
456,50,27,0.113759063594041,1
456,51,27,0.165654660920938,1
456,52,27,0.210083819254686,1
456,53,27,0.187393672562982,1
456,54,27,0.140866901249281,1
457,51,27,0.15745010683502,1
457,52,27,0.214249414619086,1
457,53,27,0.195696516374696,1
457,54,27,0.1398971351972,1
458,52,27,0.163443059652466,1
458,53,27,0.148619518092517,1
458,83,27,0.121769275832957,1
459,52,27,0.12460692353488,1
459,53,27,0.115627863839452,1
460,52,27,0.127394766869395,1
460,53,27,0.120966529298158,1
461,52,27,0.114045806733711,1
461,53,27,0.114235944239459,1
462,89,27,0.122799092126091,1
462,90,27,0.118059975151754,1
463,89,27,0.121442055603956,1
463,90,27,0.117708836107382,1
464,89,27,0.126403602251322,1
464,90,27,0.12034500518135,1
465,89,27,0.136085246234017,1
465,90,27,0.136957605825271,1
465,91,27,0.117554606266857,1
466,53,27,0.116203458177851,1
466,89,27,0.123645201082454,1
466,90,27,0.144823245253994,1
466,91,27,0.13003441011891,1
467,90,27,0.134398375018572,1
467,91,27,0.13494734186236,1
467,92,27,0.118549810350057,1
468,91,27,0.122096625607486,1
468,92,27,0.117486594864212,1
474,92,27,0.11602821840792,1
475,59,27,0.149844029538642,1
475,92,27,0.130951109611628,1
476,91,27,0.12663504122704,1
476,92,27,0.130842738888315,1
477,91,27,0.150983723993971,1
477,92,27,0.158308675715885,1
478,91,27,0.153017671234929,1
478,92,27,0.196364653328157,1
479,61,27,0.131500747736793,1
479,62,27,0.127973164101964,1
479,91,27,0.153959125700523,1
480,62,27,0.142662048973109,1
480,63,27,0.120861267667537,1
480,90,27,0.120193307367071,1
481,63,27,0.116956553444503,1
482,89,27,0.125691549363583,1
483,88,27,0.126309128230194,1
484,69,27,0.120276122290602,1
484,70,27,0.119975894639067,1
485,70,27,0.132469194779852,1
485,71,27,0.137319073181353,1
485,74,27,0.122896946107835,1
485,75,27,0.122668050935229,1
485,87,27,0.118040366669433,1
485,88,27,0.150719992850971,1
486,70,27,0.165732823982297,1
486,71,27,0.199357520127371,1
486,72,27,0.154719875930243,1
486,73,27,0.154456097679778,1
486,77,27,0.147315583460343,1
486,78,27,0.144515810160308,1
486,79,27,0.125520831910295,1
486,84,27,0.120786884980246,1
486,85,27,0.135314273684385,1
486,86,27,0.146295518412471,1
486,87,27,0.146190680749035,1
487,71,27,0.183282757188623,1
487,72,27,0.172417361493925,1
487,78,27,0.160458483767097,1
487,79,27,0.140807451628406,1
487,80,27,0.115078802780735,1
487,82,27,0.162894104585544,1
487,86,27,0.180463716935388,1
488,79,27,0.127102688809311,1
488,80,27,0.115459478205684,1
488,81,27,0.125755403532438,1
489,79,27,0.121166582925296,1
489,80,27,0.117354281771795,1
489,81,27,0.119268552497831,1
436,67,28,0.133570626196706,1
437,67,28,0.115669129978823,1
437,68,28,0.116424498180663,1
451,53,28,0.117996285859027,1
451,54,28,0.115693048794195,1
452,52,28,0.12029246858097,1
452,53,28,0.124696180404256,1
453,53,28,0.114596163247717,1
454,52,28,0.118763324935329,1
454,53,28,0.116960310264839,1
455,52,28,0.160419384571118,1
455,53,28,0.156701946075331,1
455,54,28,0.134232497857317,1
456,51,28,0.139362453692184,1
456,52,28,0.193597890584245,1
456,53,28,0.207737867495934,1
456,54,28,0.174538422214599,1
456,55,28,0.131811445022432,1
457,51,28,0.129999680140312,1
457,52,28,0.185954610167355,1
457,53,28,0.201432957268159,1
457,54,28,0.166946583149528,1
457,55,28,0.123895141515065,1
458,52,28,0.141137875165029,1
458,53,28,0.144040142532115,1
458,54,28,0.122733165228774,1
459,52,28,0.114554402479963,1
460,53,28,0.11532850767602,1
461,88,28,0.116707920244047,1
462,88,28,0.144992431714667,1
462,89,28,0.204832632358551,1
463,88,28,0.14355818605734,1
463,89,28,0.173113739372674,1
463,90,28,0.142827855473167,1
464,88,28,0.137296473375002,1
464,89,28,0.154264853148602,1
464,90,28,0.131015116879745,1
465,88,28,0.12401452360833,1
465,89,28,0.154414266250827,1
465,90,28,0.140817332419197,1
466,89,28,0.137858182788082,1
466,90,28,0.14666514713687,1
466,91,28,0.127226334128162,1
467,89,28,0.133777675282402,1
467,90,28,0.15384892956294,1
467,91,28,0.139737134692208,1
468,89,28,0.131638007113039,1
468,90,28,0.149308688529116,1
468,91,28,0.139424435339304,1
469,90,28,0.117201535816418,1
469,91,28,0.118611203153864,1
475,91,28,0.125493603795505,1
476,60,28,0.114578768816253,1
476,90,28,0.114706571368893,1
476,91,28,0.148238030063796,1
477,91,28,0.153177718847386,1
478,91,28,0.153293626765105,1
479,62,28,0.141589953730106,1
479,63,28,0.120799486227143,1
479,90,28,0.130454573376425,1
480,63,28,0.142075031074439,1
480,90,28,0.14460494926102,1
482,88,28,0.118418992919654,1
483,69,28,0.179657519778776,1
483,70,28,0.177962734509205,1
484,69,28,0.186266367370958,1
484,70,28,0.196960727636979,1
484,71,28,0.129067776713254,1
485,69,28,0.125344202470146,1
485,70,28,0.15319357050937,1
485,71,28,0.142030066999063,1
485,73,28,0.116560591647149,1
485,74,28,0.134611842496379,1
485,75,28,0.129453987265345,1
485,76,28,0.131223944272246,1
485,77,28,0.142188159651721,1
485,78,28,0.135516612023577,1
485,86,28,0.131763395408096,1
485,87,28,0.152100559551891,1
486,70,28,0.149820734897182,1
486,71,28,0.18283173854151,1
486,72,28,0.149653244305249,1
486,73,28,0.16393427274412,1
486,78,28,0.190727432532924,1
486,79,28,0.162487013649576,1
486,80,28,0.128237013013626,1
487,72,28,0.155102671191119,1
487,79,28,0.159262672544045,1
487,80,28,0.131410666486779,1
487,81,28,0.126851382260214,1
488,79,28,0.123671911015129,1
488,80,28,0.115667587209343,1
436,67,29,0.136265820924363,1
437,67,29,0.119030989551658,1
440,70,29,0.11865644987403,1
441,70,29,0.138629791288492,1
441,71,29,0.136904268397985,1
451,54,29,0.118964603356558,1
452,53,29,0.123601002503385,1
452,54,29,0.121956716436332,1
453,53,29,0.116743627702543,1
454,53,29,0.116805515134733,1
455,52,29,0.142326573160861,1
455,53,29,0.155947955766844,1
455,54,29,0.14144699435059,1
455,55,29,0.119912299561269,1
456,52,29,0.166445960341733,1
456,53,29,0.205131175918212,1
456,54,29,0.192016492983013,1
456,55,29,0.159609536585966,1
457,52,29,0.148336461111987,1
457,53,29,0.183965367910715,1
457,54,29,0.176223444462042,1
457,55,29,0.14376424588627,1
458,52,29,0.118157004752861,1
458,53,29,0.134536741420247,1
458,54,29,0.128772589560477,1
461,87,29,0.118794156771194,1
461,88,29,0.15105669345731,1
461,89,29,0.219507078791663,1
462,87,29,0.139389870236835,1
462,88,29,0.196568628651759,1
462,89,29,0.267625587795172,1
462,90,29,0.197787310549086,1
463,87,29,0.146478848889522,1
463,88,29,0.189799474356062,1
463,89,29,0.212202665924504,1
463,90,29,0.159459970384479,1
464,87,29,0.130183199047223,1
464,88,29,0.171368996636433,1
464,89,29,0.181703067232999,1
465,88,29,0.145600565534539,1
465,89,29,0.168575465075515,1
466,88,29,0.129084688293201,1
466,89,29,0.144975001952604,1
466,90,29,0.139320563378902,1
467,88,29,0.141407765609082,1
467,89,29,0.159519184468028,1
467,90,29,0.155395361648249,1
468,88,29,0.132949773361275,1
468,89,29,0.169730952308497,1
468,90,29,0.170897038721111,1
469,89,29,0.130995449513093,1
469,90,29,0.13907412067557,1
474,88,29,0.130293454069138,1
474,89,29,0.128279386178425,1
474,90,29,0.120843779021143,1
475,88,29,0.120389498182076,1
475,89,29,0.123395095773716,1
475,90,29,0.124168824110053,1
476,90,29,0.122316535031137,1
478,90,29,0.117159845709862,1
479,63,29,0.12697132964306,1
479,89,29,0.116112682092728,1
480,64,29,0.118313177776318,1
480,87,29,0.116431258101895,1
480,88,29,0.127999438290587,1
480,89,29,0.131744752628809,1
481,87,29,0.117792946486202,1
481,88,29,0.119962457234666,1
482,87,29,0.121947377381388,1
483,69,29,0.192666434678104,1
483,70,29,0.197409155373516,1
483,71,29,0.11760272654239,1
483,86,29,0.120519538339305,1
484,69,29,0.202597854217282,1
484,70,29,0.227105842654095,1
484,71,29,0.14254576419567,1
484,77,29,0.115150123482798,1
484,78,29,0.117352373919461,1
484,86,29,0.148727076212059,1
485,69,29,0.125153770542741,1
485,70,29,0.159089517279442,1
485,71,29,0.139867799023349,1
485,72,29,0.119145437137961,1
485,73,29,0.126264517460806,1
485,74,29,0.148862804595691,1
485,75,29,0.142632159286544,1
485,76,29,0.156272879506924,1
485,78,29,0.179815141356784,1
485,79,29,0.140576177528816,1
485,80,29,0.119481560677854,1
485,84,29,0.117134749207864,1
485,85,29,0.122743705524076,1
486,71,29,0.151693150640534,1
486,72,29,0.13715939065175,1
486,73,29,0.158480076227416,1
486,74,29,0.208093128443497,1
486,79,29,0.188186550083856,1
486,80,29,0.160892708602925,1
486,81,29,0.128576928704453,1
487,79,29,0.16760042298735,1
487,80,29,0.142992660939592,1
487,81,29,0.13347369081053,1
437,67,30,0.114976685573405,1
440,70,30,0.128597196691285,1
440,71,30,0.124905431763942,1
441,70,30,0.14080023240939,1
441,71,30,0.14824541415894,1
445,56,30,0.11512483855094,1
446,56,30,0.115369373401938,1
451,54,30,0.11426285437886,1
451,55,30,0.118302319505628,1
452,53,30,0.115211174757484,1
452,54,30,0.125576065413049,1
452,55,30,0.119878876814827,1
453,54,30,0.114912513429161,1
455,53,30,0.14425415174577,1
455,54,30,0.135918356262264,1
455,55,30,0.121809081640911,1
456,53,30,0.178827392029926,1
456,54,30,0.179293308412856,1
456,55,30,0.162574645311408,1
456,56,30,0.120763837652978,1
457,53,30,0.153765184266973,1
457,54,30,0.160436543465257,1
457,55,30,0.14305452481805,1
458,53,30,0.121308494163715,1
458,54,30,0.124674640515868,1
459,91,30,0.234462803898501,1
460,89,30,0.145585290939002,1
461,86,30,0.136963152729279,1
461,87,30,0.16075204571233,1
461,88,30,0.170545181287897,1
461,89,30,0.237959331937005,1
461,90,30,0.223454048410834,1
462,86,30,0.143550483986807,1
462,87,30,0.202239719714352,1
462,88,30,0.236224764413212,1
462,89,30,0.286604384630945,1
462,90,30,0.226412326553847,1
462,91,30,0.14885802318799,1
463,86,30,0.133221006368081,1
463,87,30,0.195890975990361,1
463,88,30,0.238285339148781,1
463,89,30,0.243162068805352,1
463,90,30,0.18013488327571,1
464,86,30,0.135070056808776,1
464,87,30,0.167675559394081,1
464,88,30,0.201849269490407,1
464,89,30,0.207803770839518,1
465,86,30,0.144223001934515,1
465,87,30,0.153617101950635,1
465,88,30,0.163279031459213,1
466,86,30,0.115239144814848,1
466,87,30,0.142069955245082,1
466,88,30,0.157518130014531,1
466,89,30,0.148137373187882,1
467,87,30,0.137870171637933,1
467,88,30,0.180043259256216,1
467,89,30,0.172922624387026,1
468,88,30,0.154170061152085,1
468,89,30,0.179243504045448,1
469,89,30,0.138325194419574,1
473,88,30,0.114095622877985,1
473,89,30,0.11620031375456,1
474,88,30,0.11978735878713,1
474,89,30,0.123375711051854,1
474,90,30,0.120492274893916,1
475,88,30,0.115373412867065,1
475,89,30,0.118617174025057,1
476,63,30,0.11374833486888,1
476,84,30,0.119743171984927,1
479,88,30,0.117877598600871,1
480,86,30,0.113996143688697,1
480,87,30,0.132386921592168,1
480,88,30,0.139550388923942,1
481,86,30,0.122529213458904,1
481,87,30,0.138680997102985,1
482,69,30,0.118353631311917,1
482,70,30,0.117936753800089,1
482,86,30,0.125212902188227,1
482,87,30,0.149710350329738,1
483,69,30,0.175293001366399,1
483,70,30,0.184554705852038,1
483,71,30,0.119079592678709,1
484,69,30,0.186535751409762,1
484,70,30,0.216867105789894,1
484,71,30,0.141661274432169,1
484,77,30,0.138193788145859,1
484,78,30,0.156801142619829,1
484,79,30,0.119008377968442,1
484,84,30,0.116783515948562,1
485,71,30,0.13248081854685,1
485,72,30,0.114322139123607,1
485,73,30,0.121299037340109,1
485,74,30,0.142833084401786,1
485,75,30,0.139845293431929,1
485,76,30,0.156604480730173,1
485,78,30,0.203881461978293,1
485,79,30,0.155692032686174,1
485,80,30,0.133447487283104,1
485,81,30,0.117674129682517,1
486,74,30,0.181361149474907,1
486,79,30,0.184219065163662,1
486,80,30,0.167165067572361,1
486,81,30,0.132516949972532,1
440,70,31,0.12703359393497,1
440,71,31,0.130287918941996,1
441,70,31,0.124753627957866,1
441,71,31,0.13940260102926,1
445,56,31,0.12051700631306,1
452,54,31,0.121511833536539,1
452,55,31,0.119229936153368,1
455,53,31,0.130995508397424,1
455,54,31,0.127538656621345,1
455,55,31,0.116713855784641,1
456,53,31,0.145718416635191,1
456,54,31,0.154179294215232,1
456,55,31,0.147578619768233,1
457,53,31,0.124244019401115,1
457,54,31,0.135337627210176,1
457,55,31,0.129807882096422,1
458,54,31,0.114657614935855,1
458,91,31,0.279892583673928,1
459,90,31,0.211934271142466,1
459,91,31,0.283731418107111,1
459,92,31,0.223503228604331,1
460,90,31,0.191394674444549,1
460,91,31,0.205579803861474,8
460,92,31,0.165675576635413,1
461,85,31,0.125038416137736,1
461,86,31,0.177737407727075,1
461,87,31,0.189702444754956,1
461,88,31,0.176266524238816,1
461,89,31,0.219019704958409,1
461,90,31,0.244283297134387,1
461,91,31,0.191787962893261,1
462,85,31,0.131013668325195,1
462,86,31,0.201346562177284,1
462,87,31,0.247943924027342,1
462,88,31,0.246472145497247,1
462,89,31,0.25700447963728,1
462,90,31,0.228835675877652,1
462,91,31,0.163171355571009,1
463,86,31,0.165491539546387,1
463,87,31,0.228176289135822,1
463,88,31,0.260385759262576,1
463,89,31,0.242593363933715,1
463,90,31,0.181420775748776,1
464,86,31,0.169985638818209,1
464,87,31,0.197185147600407,1
464,88,31,0.212246664296847,1
464,89,31,0.206094146718461,1
465,85,31,0.118265434360505,1
465,86,31,0.195855292085597,1
465,87,31,0.201638487138108,1
466,86,31,0.140242845106227,1
466,87,31,0.173668571095858,1
467,87,31,0.151131500111786,1
467,88,31,0.198996959589992,1
468,87,31,0.116253474528852,1
468,88,31,0.159412226968666,1
469,88,31,0.119379949875773,1
470,88,31,0.115585843980641,1
472,88,31,0.125094933318912,1
473,88,31,0.1173830055486,1
474,89,31,0.116422696320125,1
475,84,31,0.132419508181106,1
475,85,31,0.128957227269682,1
475,86,31,0.123040729867989,1
475,87,31,0.114896131808195,1
476,83,31,0.157674703451441,1
476,84,31,0.185822850587651,1
476,85,31,0.15055495184722,1
476,86,31,0.135275221595871,1
476,87,31,0.134563781105177,1
476,88,31,0.127335022826864,1
477,64,31,0.12482570237937,1
477,83,31,0.1579771569307,1
477,84,31,0.171086080978298,1
477,85,31,0.135372875370889,1
477,86,31,0.128598798345096,1
477,87,31,0.140953202125225,1
478,64,31,0.11607836430445,1
478,83,31,0.117354493755387,1
478,84,31,0.124188833005827,1
478,87,31,0.127152292969993,1
480,69,31,0.119971454760487,1
480,70,31,0.115832922634751,1
480,85,31,0.11572724881381,1
480,86,31,0.130390142141123,1
481,68,31,0.12157428625831,1
481,69,31,0.144151481025725,1
481,70,31,0.133630723545225,1
481,71,31,0.134000517145751,1
481,86,31,0.140371000964855,1
482,69,31,0.131775678679604,1
482,70,31,0.127414446012914,1
482,71,31,0.1221270216993,1
483,69,31,0.140437057407701,1
483,70,31,0.148573647198439,1
483,71,31,0.115015878984314,1
484,71,31,0.129205624932813,1
484,77,31,0.145071124735009,1
484,78,31,0.18405405949051,1
484,79,31,0.15123524252666,1
484,80,31,0.114039046812478,1
485,74,31,0.129157292673687,1
485,75,31,0.129593225155123,1
485,76,31,0.144014892930856,1
485,77,31,0.19067402444444,1
485,78,31,0.203156124785414,1
485,79,31,0.16722591864032,1
485,80,31,0.144524678140601,1
439,64,32,0.12169469293894,1
440,71,32,0.116874727777736,1
441,71,32,0.115237154524451,1
445,56,32,0.116075055005032,1
445,57,32,0.117499985161149,1
456,54,32,0.123868207821931,1
456,55,32,0.120391947770258,1
458,91,32,0.25723528266222,1
459,90,32,0.221383769537468,1
459,91,32,0.328427122254895,8
459,92,32,0.250237610053637,1
460,89,32,0.148047551028926,1
460,90,32,0.233243050306345,8
460,91,32,0.315865798934599,8
460,92,32,0.247233449239681,8
460,93,32,0.153449740904232,1
461,86,32,0.213707019266671,1
461,87,32,0.21164503130715,1
461,88,32,0.185093603475174,1
461,89,32,0.192937337932655,1
461,90,32,0.249979060731792,1
461,91,32,0.256429815671316,8
461,92,32,0.189334252808241,1
462,85,32,0.182495473679222,1
462,86,32,0.256599496760373,1
462,87,32,0.266237401461782,1
462,88,32,0.239526597298726,1
462,89,32,0.215093863037307,1
462,90,32,0.205273511123815,1
462,91,32,0.167233738479516,1
463,85,32,0.141415703216941,1
463,86,32,0.198100787175162,1
463,87,32,0.236919458200086,1
463,88,32,0.251214194911282,1
463,89,32,0.218932956561547,1
464,85,32,0.12976992525647,1
464,86,32,0.184260366633632,1
464,87,32,0.211550675054685,1
464,88,32,0.20723421803351,1
465,85,32,0.137879805114533,1
465,86,32,0.215817598576375,1
465,87,32,0.241900295354384,1
465,88,32,0.193642430692435,1
466,86,32,0.153466628930447,1
466,87,32,0.201284498092101,1
468,87,32,0.122105375819116,1
474,84,32,0.122564708933808,1
474,85,32,0.134989526597299,1
474,86,32,0.1295390280166,1
474,87,32,0.116349903509779,1
475,83,32,0.147068069062182,1
475,84,32,0.185858781806607,1
475,85,32,0.183116079200462,1
475,86,32,0.160722061810835,1
475,87,32,0.1341983331683,1
476,82,32,0.119745338928318,1
476,83,32,0.202234679215593,1
476,84,32,0.250272139825508,1
476,85,32,0.211687922654065,1
476,86,32,0.179347010922996,1
477,64,32,0.127328498442957,1
477,82,32,0.122612440572755,1
477,83,32,0.201282401809907,1
477,84,32,0.226610672535377,1
477,85,32,0.179940918288428,1
477,86,32,0.160479175721114,1
478,83,32,0.148281675130151,1
478,84,32,0.155046024464414,1
478,85,32,0.134010633473867,1
479,84,32,0.125270502841098,1
479,85,32,0.131017919773914,1
480,69,32,0.137879663792138,1
480,70,32,0.140059962150094,1
480,71,32,0.120667302680255,1
480,84,32,0.117885936622182,1
481,68,32,0.121119287030401,1
481,69,32,0.170023831195487,1
481,70,32,0.165436470919761,1
481,71,32,0.154783600553569,1
481,72,32,0.126891930010743,1
482,69,32,0.143449944879555,1
482,70,32,0.139413282646957,1
482,71,32,0.131481916527645,1
483,70,32,0.117887809143917,1
483,78,32,0.11684257693285,1
483,79,32,0.117219142231475,1
484,77,32,0.132174337379331,1
484,78,32,0.185828185508067,1
484,79,32,0.182579866702833,1
484,80,32,0.14039424849885,1
485,77,32,0.152413282458527,1
485,78,32,0.183575306323358,1
439,63,33,0.114892127673667,1
439,64,33,0.138508795764549,1
440,64,33,0.126288259623184,1
444,57,33,0.117036859895521,1
445,57,33,0.125269819782855,1
445,58,33,0.115766866191905,1
449,57,33,0.12365399840155,1
458,91,33,0.183424491774047,1
458,92,33,0.154632927326654,1
459,90,33,0.204246780369641,1
459,91,33,0.314872443819402,8
459,92,33,0.251227879629875,8
459,93,33,0.171748317721762,1
460,89,33,0.143118838284689,1
460,90,33,0.26173263234913,8
460,91,33,0.413550170251089,8
460,92,33,0.323229472992772,8
460,93,33,0.18918114177001,8
461,84,33,0.137110811078432,1
461,86,33,0.235320654390524,1
461,87,33,0.232768183505057,1
461,89,33,0.169130214360635,1
461,90,33,0.231020331676124,1
461,91,33,0.300862353965681,8
461,92,33,0.229694562733906,8
462,84,33,0.128165562766034,1
462,85,33,0.217359449460709,1
462,86,33,0.274262134576795,1
462,87,33,0.26244291870693,1
462,88,33,0.226338697585997,1
462,90,33,0.164209250794397,1
462,91,33,0.153872447964859,1
463,86,33,0.212224194036025,1
463,87,33,0.224529111424135,1
463,88,33,0.219008799580254,1
464,84,33,0.115865556331154,1
464,85,33,0.139217138939417,1
464,87,33,0.203232156233981,1
465,84,33,0.127361968296864,1
465,85,33,0.149427540663399,1
465,86,33,0.195723379406632,1
465,87,33,0.243547242993212,1
465,88,33,0.201376334095187,1
466,85,33,0.119313186820952,1
466,87,33,0.205865840389168,1
473,86,33,0.118489724778404,1
474,83,33,0.142080424879186,1
474,84,33,0.157468572961314,1
474,85,33,0.164566631577886,1
474,86,33,0.143156324049991,1
475,82,33,0.165794876290615,1
475,83,33,0.209779764121617,1
475,84,33,0.238535738879176,1
475,85,33,0.235186303900244,1
475,86,33,0.183511723022426,1
476,81,33,0.114555285744932,1
476,82,33,0.167628852342499,1
476,83,33,0.239432500137318,1
476,84,33,0.290205161489572,1
476,85,33,0.265665446175058,1
476,86,33,0.210536898853395,1
477,82,33,0.146767252567333,1
477,83,33,0.225732094758739,1
477,84,33,0.260191346754376,1
477,85,33,0.218323103319201,1
478,82,33,0.127668767439772,1
478,83,33,0.176393726171278,1
478,84,33,0.179698055752439,1
478,85,33,0.150401475726136,1
479,83,33,0.130266237731214,1
479,84,33,0.14213402139753,1
480,69,33,0.126858059743383,1
480,70,33,0.144694312122192,1
480,71,33,0.126113161175648,1
481,69,33,0.161780766756903,1
481,70,33,0.181987655206143,1
481,71,33,0.158593028151704,1
481,72,33,0.130860227534709,1
482,69,33,0.140316120768089,1
482,70,33,0.151780876517296,1
482,71,33,0.133091366624304,1
483,79,33,0.118851592547938,1
484,78,33,0.157893128989943,1
439,63,34,0.123548654332865,1
439,64,34,0.141101096011703,1
439,65,34,0.115283378724516,1
440,63,34,0.119509566065817,1
440,64,34,0.132974069036367,1
440,65,34,0.113845564676712,1
445,57,34,0.11408663712903,1
445,60,34,0.117451464472162,1
449,57,34,0.124902405109313,1
449,58,34,0.116067294050167,1
452,79,34,0.134897160635231,1
453,79,34,0.139755365281176,1
453,80,34,0.118342243082245,1
458,91,34,0.126151695082047,1
459,90,34,0.177802156937766,1
459,91,34,0.278325271204742,8
459,92,34,0.235757387698865,8
460,86,34,0.172128757609387,1
460,87,34,0.168953785127212,1
460,89,34,0.131637771575714,1
460,90,34,0.262862599112929,8
460,91,34,0.456174888913531,8
460,92,34,0.357839468876522,8
460,93,34,0.209051152959917,8
461,85,34,0.23062632483857,1
461,86,34,0.264715783233681,1
461,87,34,0.255376586968059,1
461,88,34,0.196317522309389,1
461,90,34,0.206072689268137,1
461,91,34,0.318866897763328,8
461,92,34,0.249755488702735,8
461,93,34,0.156276353682471,1
462,85,34,0.217512054093691,1
462,86,34,0.264968797428385,1
462,87,34,0.255886996351715,1
462,88,34,0.208757767667678,1
462,91,34,0.142440926532234,1
462,92,34,0.12542896057661,1
463,86,34,0.194612915133358,1
463,87,34,0.195875088997778,1
464,84,34,0.116254581554281,1
465,84,34,0.134442255622252,1
465,87,34,0.206472396108961,1
474,82,34,0.141385731092312,1
474,83,34,0.154974338679497,1
474,84,34,0.156794959765043,1
474,85,34,0.164763894087721,1
475,81,34,0.146920163398838,1
475,82,34,0.230555239673832,1
475,83,34,0.244767444106286,1
475,84,34,0.236907540011432,1
475,85,34,0.238382192096894,1
476,81,34,0.136513194000129,1
476,82,34,0.204827120785142,1
476,83,34,0.24245672873138,1
476,84,34,0.267940501198932,1
476,85,34,0.264822599410648,1
476,86,34,0.201314387778665,1
477,82,34,0.154496409892982,1
477,83,34,0.21121364469609,1
477,84,34,0.240980121686119,1
477,85,34,0.217181689441399,1
478,82,34,0.13691596282618,1
478,83,34,0.178762230628916,1
478,84,34,0.179760720457802,1
479,83,34,0.138586534858723,1
480,70,34,0.133034060393089,1
480,71,34,0.123238887419659,1
480,72,34,0.116950382366583,1
480,83,34,0.116795292814821,1
481,69,34,0.139668051594734,1
481,70,34,0.176691680887625,1
481,71,34,0.149254632712988,1
481,72,34,0.125413179575824,1
481,82,34,0.119855452627838,1
482,71,34,0.129011436185072,1
439,63,35,0.134970141875437,1
439,64,35,0.142911965851987,1
439,65,35,0.118405296424195,1
440,62,35,0.118896768606907,1
440,63,35,0.128644881222767,1
440,64,35,0.139181996770501,1
440,65,35,0.127480891092346,1
441,64,35,0.124767265568994,1
441,65,35,0.136680343062941,1
441,66,35,0.116856980040284,1
444,59,35,0.116027252704887,1
444,60,35,0.117368873309089,1
445,58,35,0.116158081912156,1
445,59,35,0.118337555889474,1
445,60,35,0.124953234064086,1
452,77,35,0.11881236380643,1
452,78,35,0.13391134271444,1
452,79,35,0.156503329225876,1
453,78,35,0.129970897479176,1
453,79,35,0.167536639479692,1
453,80,35,0.154789771631489,1
454,79,35,0.125043833496215,1
454,80,35,0.132080829061236,1
459,91,35,0.218883917690445,8
459,92,35,0.198140239677129,1
460,86,35,0.181682952345429,1
460,87,35,0.163952102919636,1
460,90,35,0.214104229411847,8
460,91,35,0.378761283768869,8
460,92,35,0.306751046186137,8
460,93,35,0.193473833075075,1
461,85,35,0.240239992749219,1
461,86,35,0.295722128703436,1
461,87,35,0.26839273286327,1
461,88,35,0.181863868564897,1
461,90,35,0.163355168899576,1
461,91,35,0.265809759894193,8
461,92,35,0.215235703614528,1
462,81,35,0.114339745538664,1
462,85,35,0.196630174554827,1
462,86,35,0.248644035172695,1
462,87,35,0.247264728596464,1
462,88,35,0.18569990010391,1
462,91,35,0.121617519134346,1
463,86,35,0.160931772468306,1
463,87,35,0.166564270740168,1
474,81,35,0.128819591033716,1
474,82,35,0.161465064303103,1
474,83,35,0.155654193614885,1
474,84,35,0.146585900603814,1
475,80,35,0.12827924485603,1
475,81,35,0.180908328967256,1
475,82,35,0.279726388537284,1
475,83,35,0.262014829618423,1
475,84,35,0.21115226366915,1
476,80,35,0.116433483929618,1
476,81,35,0.155738327547437,1
476,82,35,0.237565442868114,1
476,83,35,0.243111616710299,1
476,84,35,0.225243590346324,1
476,85,35,0.229018358627059,1
477,81,35,0.130862123610177,1
477,82,35,0.169286882012476,1
477,83,35,0.195602065907301,1
477,84,35,0.205310773128658,1
478,70,35,0.13733570211651,1
478,81,35,0.121326712975817,1
478,82,35,0.147780333933514,1
478,83,35,0.173300555802137,1
479,70,35,0.118200096306502,1
480,70,35,0.118049823493039,1
480,71,35,0.118409547872914,1
480,72,35,0.115857312524773,1
481,71,35,0.133226117528038,1
481,72,35,0.119923381592419,1
439,65,36,0.123896060110633,1
440,63,36,0.132161053074191,1
440,64,36,0.142705623378267,1
440,65,36,0.136479853691751,1
441,62,36,0.115910779497588,1
441,63,36,0.11872815921268,1
441,64,36,0.132520435924944,1
441,65,36,0.143425896518655,1
441,66,36,0.118254858734605,1
443,60,36,0.116115696970491,1
443,61,36,0.116935201985975,1
444,59,36,0.12059526358935,1
444,60,36,0.127776384443645,1
444,61,36,0.126182432702982,1
445,59,36,0.122156817170935,1
445,60,36,0.127364665199238,1
445,61,36,0.122835470865964,1
452,77,36,0.136061009443257,1
452,78,36,0.131986708346096,1
453,78,36,0.121842857693342,1
453,79,36,0.164125399506634,1
454,79,36,0.12656814862669,1
456,60,36,0.113948058743763,1
457,59,36,0.140339745161804,1
457,60,36,0.120518702181801,1
460,86,36,0.166530094274285,1
460,91,36,0.273931958354363,8
460,92,36,0.24005728644608,1
461,85,36,0.211886551280386,1
461,86,36,0.277025152277236,1
461,87,36,0.242115293824805,1
461,91,36,0.203249656657241,1
462,86,36,0.215253321806451,1
462,87,36,0.216467281180408,1
473,81,36,0.113935598819261,1
474,79,36,0.125438641160675,1
474,81,36,0.168524094384894,1
474,82,36,0.170784887623729,1
474,83,36,0.148766999788676,1
475,80,36,0.198109690486054,1
475,81,36,0.209669980174352,1
475,82,36,0.269932440357945,1
475,83,36,0.240122671607549,1
475,84,36,0.178893165827981,1
476,81,36,0.171017092095754,1
476,82,36,0.241050076271697,1
476,83,36,0.238027991067294,1
476,84,36,0.192472870104274,1
477,81,36,0.144268931712924,1
477,82,36,0.183292013805502,1
477,83,36,0.191081515793861,1
441,63,37,0.128000038910766,1
441,64,37,0.135354444575194,1
441,65,37,0.137116287321242,1
443,60,37,0.117586121160965,1
443,61,37,0.123931932445257,1
444,59,37,0.119684040339441,1
444,60,37,0.13223757915114,1
444,61,37,0.138854093483257,1
444,62,37,0.117673116872019,1
445,59,37,0.12292066471648,1
445,60,37,0.129489659393243,1
445,61,37,0.130822105818629,1
461,86,37,0.216867718186939,1
474,80,37,0.218387475670172,1
474,81,37,0.187803213087132,1
474,82,37,0.159345946765361,1
475,79,37,0.244536099345498,1
475,80,37,0.268005603715611,1
475,81,37,0.21630311166476,1
475,82,37,0.208307137657152,1
475,83,37,0.18364675657095,1
476,80,37,0.182425201118256,1
476,81,37,0.176956801700843,1
476,82,37,0.207363480917567,1
476,83,37,0.207950840345358,1
476,84,37,0.160907759438004,1
477,82,37,0.186363090773541,1
477,83,37,0.18581586690596,1
443,61,38,0.1154243595905,1
444,60,38,0.1167747068526,1
444,61,38,0.127129045435998,1
445,61,38,0.118133651227069,1
474,79,38,0.223536227383588,1
474,80,38,0.235290411397971,1
474,81,38,0.183636899333891,1
475,78,38,0.147870415183527,1
475,79,38,0.288607158506916,1
475,80,38,0.30500109807501,1
475,81,38,0.21414803935433,1
475,82,38,0.158813008236552,1
476,79,38,0.187533181320684,1
476,80,38,0.207335028008685,1
476,81,38,0.183427224007019,1
476,82,38,0.17460364249994,1
476,83,38,0.170838637241334,1
474,79,39,0.211098042976894,1
474,80,39,0.213355314932718,1
475,78,39,0.139944537083892,1
475,79,39,0.276835356300609,1
475,80,39,0.301680728402005,1
475,81,39,0.212112031161777,1
476,79,39,0.19188637038772,1
476,80,39,0.228195108568104,1
474,80,40,0.168854117508064,1
475,79,40,0.222034912472917,1
475,80,40,0.265208056243298,1
475,81,40,0.19810403759025,1
476,80,40,0.239853546659803,1
475,80,41,0.216557091562497,1
