x,y,z,signal,mito.p
643,814,31,0.158515053520204,1
628,808,32,0.133820283984527,1
628,809,32,0.139123206654137,1
631,806,32,0.134749502286078,1
631,807,32,0.141415538340813,1
632,805,32,0.136529893596484,1
632,806,32,0.141409155279301,1
632,807,32,0.148063261368515,1
633,806,32,0.14896215423945,1
642,813,32,0.203688015173126,1
642,814,32,0.22460344700396,1
643,813,32,0.209165906744743,1
643,814,32,0.238960671767526,1
643,815,32,0.180079178698306,1
644,814,32,0.174758637836772,1
627,808,33,0.116733370052032,1
627,809,33,0.117920242633594,1
628,806,33,0.146593037384767,1
628,807,33,0.139479633511459,1
628,808,33,0.130663718744315,1
628,809,33,0.127307830042673,1
628,810,33,0.127465333852018,1
629,808,33,0.140261134579527,1
629,809,33,0.138535717680817,1
630,806,33,0.13847479595166,1
630,807,33,0.140704557147903,1
631,805,33,0.133620253911121,1
631,806,33,0.143590572439551,1
631,807,33,0.142118746801992,1
631,808,33,0.145521636976873,1
632,804,33,0.124272401648799,1
632,805,33,0.138216128861152,1
632,806,33,0.148410042972372,1
632,807,33,0.144710717296891,1
632,808,33,0.143985992501057,1
633,805,33,0.141465731344808,1
633,806,33,0.147779933520061,1
633,807,33,0.149420745411568,1
634,806,33,0.154639687247887,1
641,813,33,0.159763048037649,1
641,814,33,0.190384019112818,1
642,812,33,0.156392332261387,1
642,813,33,0.251961342860473,1
642,814,33,0.334279376851147,2
642,815,33,0.22107505076536,1
643,812,33,0.161207751552215,1
643,813,33,0.250694411142084,1
643,814,33,0.325358282891445,2
643,815,33,0.212494449562932,1
644,813,33,0.193213305239697,1
644,814,33,0.227257128278055,1
644,815,33,0.163991049016354,1
645,813,33,0.160731024006058,1
645,814,33,0.174111605027648,1
627,806,34,0.142903568946345,1
627,807,34,0.127218761603157,1
627,808,34,0.118449306573404,1
627,809,34,0.114928529967273,1
628,805,34,0.148685986725682,1
628,806,34,0.150485621435555,1
628,807,34,0.142251648737723,1
628,808,34,0.135252692450718,1
628,809,34,0.128430777794182,1
628,810,34,0.114464156353822,1
629,806,34,0.147335368595658,1
629,807,34,0.145954601688011,1
629,808,34,0.138825051731063,1
629,809,34,0.13001785184495,1
629,810,34,0.117065689664123,1
630,805,34,0.133981579944807,1
630,806,34,0.142560167303104,1
630,807,34,0.141342427555078,1
630,808,34,0.136017470368698,1
630,809,34,0.129720603740578,1
631,804,34,0.119987506629198,1
631,805,34,0.136867889658112,1
631,806,34,0.151827006502432,1
631,807,34,0.143180207534764,1
631,808,34,0.134878376533548,1
632,804,34,0.121439723784437,1
632,805,34,0.140782743762995,1
632,806,34,0.156316124159827,1
632,807,34,0.142874115003831,1
632,808,34,0.13186452335866,1
633,804,34,0.131769425163621,1
633,805,34,0.140216347157145,1
633,806,34,0.14582519748156,1
633,807,34,0.140901325029355,1
633,808,34,0.138432858530912,1
634,805,34,0.146945577876224,1
634,806,34,0.151143359416109,1
634,807,34,0.158297181494416,1
641,813,34,0.173389353373728,1
641,814,34,0.231488603432306,2
641,815,34,0.162397014837627,1
642,812,34,0.151053407711624,1
642,813,34,0.286725709907143,2
642,814,34,0.42312876665402,2
642,815,34,0.268719164042231,2
642,816,34,0.117507263264496,1
643,812,34,0.166027057208907,1
643,813,34,0.290327711559861,2
643,814,34,0.386895306202762,2
643,815,34,0.233333685069072,2
644,812,34,0.175020661334164,1
644,813,34,0.274956286627821,2
644,814,34,0.299048975652884,2
644,815,34,0.178786844279397,1
645,812,34,0.167042199526683,1
645,813,34,0.230662362049322,1
645,814,34,0.229669501562508,1
645,815,34,0.145952305199091,1
646,813,34,0.158326988742918,1
646,814,34,0.151798565370417,1
627,806,35,0.14267529794765,1
627,807,35,0.131125901860641,1
627,808,35,0.118152588428014,1
628,805,35,0.139683926810451,1
628,806,35,0.152420854983532,1
628,807,35,0.146937157416849,1
628,808,35,0.136398322446641,1
628,809,35,0.128135590641405,1
629,806,35,0.15339972455323,1
629,807,35,0.153410300179131,1
629,808,35,0.140159323570719,1
629,809,35,0.12756747461308,1
630,805,35,0.13626504365119,1
630,806,35,0.147876598038313,1
630,807,35,0.147345767568564,1
630,808,35,0.136196879149284,1
630,809,35,0.123832017511917,1
631,804,35,0.117475618824859,1
631,805,35,0.137813065613444,1
631,806,35,0.154498800596833,1
631,807,35,0.145177246076867,1
631,808,35,0.134258324525023,1
632,804,35,0.118664493473685,1
632,805,35,0.140075601828486,1
632,806,35,0.159795481527326,1
632,807,35,0.143857342014046,1
632,808,35,0.130439934731665,1
633,804,35,0.128104334838354,1
633,805,35,0.141347632929965,1
633,806,35,0.151182788364343,1
633,807,35,0.140484683054851,1
633,808,35,0.132298653979559,1
634,805,35,0.147743978747373,1
634,806,35,0.15319829303274,1
634,807,35,0.157626724498303,1
635,804,35,0.171458288836407,1
641,813,35,0.172405337313474,1
641,814,35,0.233082178313249,2
641,815,35,0.157071986990049,1
642,812,35,0.150914417136038,1
642,813,35,0.28661809290327,2
642,814,35,0.421305849079553,2
642,815,35,0.266818801795247,2
642,816,35,0.116684154527937,1
643,812,35,0.175837575439072,2
643,813,35,0.30937158735858,2
643,814,35,0.386690930465707,2
643,815,35,0.229106638016535,2
644,811,35,0.121839454178993,1
644,812,35,0.210404267785588,2
644,813,35,0.353723878086257,2
644,814,35,0.350366670375594,2
644,815,35,0.188502405636917,2
645,812,35,0.203881485532026,1
645,813,35,0.296758351611815,2
645,814,35,0.270622164307258,2
645,815,35,0.153736236729709,1
646,813,35,0.183049575236699,1
646,814,35,0.166056275614095,1
627,807,36,0.120885940202349,1
628,806,36,0.141001369508224,1
628,807,36,0.135437294829324,1
628,808,36,0.120936828041453,1
629,806,36,0.146494912535099,1
629,807,36,0.146544175166659,1
629,808,36,0.129466729834637,1
630,805,36,0.12612272399105,1
630,806,36,0.134927368297185,1
630,807,36,0.136790715853518,1
630,808,36,0.125061227927679,1
631,805,36,0.117633558378256,1
631,806,36,0.126793228094628,1
631,807,36,0.123426928643214,1
631,808,36,0.117757097705311,1
632,805,36,0.113903695288566,1
632,806,36,0.125082131865289,1
632,807,36,0.114665894072835,1
633,805,36,0.121889929827778,1
633,806,36,0.127747672443706,1
633,807,36,0.116192858998218,1
634,804,36,0.139648666872872,1
634,806,36,0.135264846176697,1
635,803,36,0.159148177850277,1
635,804,36,0.179598576563151,1
635,805,36,0.149394271016218,1
636,803,36,0.161656485487273,1
636,804,36,0.16720649858786,1
641,813,36,0.154118478477871,1
641,814,36,0.197676867097311,2
642,812,36,0.143598616039206,1
642,813,36,0.253276324193198,2
642,814,36,0.345856389689533,2
642,815,36,0.223167328824898,2
643,812,36,0.180890286808148,2
643,813,36,0.296873741347419,2
643,814,36,0.340328281560188,2
643,815,36,0.205162855688448,2
644,811,36,0.131595221757921,1
644,812,36,0.242715560698016,2
644,813,36,0.380551909176054,2
644,814,36,0.34999642925415,2
644,815,36,0.185539934929516,2
645,811,36,0.153232716812814,1
645,812,36,0.240526712335156,2
645,813,36,0.32187821891197,2
645,814,36,0.270198338444336,2
645,815,36,0.155346311000281,1
646,812,36,0.20128701834148,1
646,813,36,0.202286497427132,2
646,814,36,0.173109853006808,1
646,817,36,0.187099121360984,1
646,818,36,0.223985561938826,1
646,819,36,0.216540910148258,1
647,813,36,0.160137128417494,1
647,815,36,0.179554896166197,1
647,816,36,0.188069582248174,1
647,817,36,0.181495393973391,1
647,818,36,0.213889419371287,1
647,819,36,0.218823949887456,1
648,812,36,0.187390528139691,1
648,815,36,0.190479164415322,1
648,816,36,0.185857345028924,1
649,811,36,0.168294716360771,1
649,812,36,0.200804496577124,1
627,807,37,0.118006437517742,1
628,806,37,0.135472389890776,1
628,807,37,0.130286482164313,1
629,805,37,0.131746790026671,1
629,806,37,0.146464787311209,1
629,807,37,0.144430310111269,1
629,808,37,0.122668310026287,1
630,805,37,0.128427668701489,1
630,806,37,0.136258142407563,1
630,807,37,0.136828272280017,1
630,808,37,0.122010642706931,1
631,805,37,0.114496012777052,1
631,806,37,0.119030907113595,1
631,807,37,0.117775316517413,1
633,805,37,0.114679343254103,1
633,806,37,0.11936705420722,1
634,803,37,0.11966204115327,1
634,804,37,0.127004469744712,1
634,805,37,0.125157468478746,1
634,806,37,0.127374899296017,1
635,802,37,0.136133849361067,1
635,803,37,0.160214278668355,1
635,804,37,0.165564768100784,1
635,805,37,0.133315821918331,1
635,806,37,0.128114192075413,1
636,801,37,0.133445308562846,1
636,802,37,0.166576495127345,1
636,803,37,0.171547875458038,1
636,804,37,0.152793109949106,1
636,805,37,0.114491796658931,1
637,801,37,0.120390134132854,1
637,802,37,0.158301833356589,1
637,803,37,0.151637316517601,1
637,804,37,0.118161409300841,1
638,803,37,0.120569978657492,1
641,804,37,0.134216787517728,1
641,813,37,0.127403305097433,1
641,814,37,0.14586309543718,1
641,820,37,0.211226528587778,1
642,804,37,0.163986126286258,1
642,812,37,0.132304518858955,1
642,813,37,0.205425833112007,1
642,814,37,0.245439337880083,2
642,815,37,0.16762834593725,1
643,803,37,0.142135434621481,1
643,804,37,0.161770179354136,1
643,805,37,0.163371738950402,1
643,806,37,0.139266884422494,1
643,811,37,0.117843410358121,1
643,812,37,0.190029700314555,1
643,813,37,0.277016743594727,2
643,814,37,0.288888554949303,2
643,815,37,0.186560647705033,1
644,804,37,0.150424617268334,1
644,805,37,0.130294113573649,1
644,811,37,0.152644886310373,1
644,812,37,0.279544153308795,2
644,813,37,0.370839292035098,2
644,814,37,0.318566352136404,2
644,815,37,0.187980772899716,2
644,816,37,0.123490441282947,1
644,818,37,0.133683578120994,1
644,819,37,0.141856228676217,1
645,811,37,0.168148294582576,1
645,812,37,0.279841472074365,2
645,813,37,0.320194268359357,2
645,814,37,0.248330699869013,2
645,815,37,0.168718730653553,1
645,816,37,0.152025929550409,1
645,817,37,0.17642396916383,1
645,818,37,0.229853668197063,1
645,819,37,0.242528284970768,1
645,820,37,0.138224266675736,1
646,811,37,0.161273183821148,1
646,812,37,0.218501263751964,1
646,813,37,0.214948065433023,2
646,814,37,0.178615373106669,1
646,815,37,0.187953450569996,1
646,816,37,0.215478448381854,1
646,817,37,0.230073000554266,1
646,818,37,0.288897929334845,3
646,819,37,0.293831187949458,3
646,820,37,0.156620591483215,1
647,811,37,0.147565959637005,1
647,812,37,0.173997746284658,1
647,813,37,0.159504734253129,1
647,814,37,0.168912978285626,1
647,815,37,0.242843316143191,1
647,816,37,0.28156155405266,3
647,817,37,0.256779541491737,3
647,818,37,0.30423411788304,3
647,819,37,0.298105248252101,3
647,820,37,0.158353945989784,1
648,811,37,0.186235665080621,1
648,812,37,0.223440599229567,1
648,813,37,0.168884713806604,1
648,814,37,0.181360525300996,1
648,815,37,0.25643836567622,1
648,816,37,0.260624641217769,1
648,817,37,0.211801475198532,1
648,818,37,0.240419401529806,1
648,819,37,0.226753737906689,1
649,810,37,0.125686850393946,1
649,811,37,0.238043253885965,1
649,812,37,0.289893710484492,1
649,813,37,0.194738550742607,1
649,815,37,0.19959720290947,1
649,816,37,0.17623582194848,1
650,811,37,0.158979050273935,1
650,812,37,0.19338636628937,1
625,813,38,0.13143420844243,1
625,814,38,0.155572379724985,1
627,806,38,0.115922415041451,1
627,807,38,0.114581595264155,1
628,806,38,0.127898369224354,1
628,807,38,0.125614870187372,1
629,805,38,0.124602554317498,1
629,806,38,0.140692662512982,1
629,807,38,0.139218175303648,1
629,808,38,0.119290634122066,1
630,805,38,0.126510100452901,1
630,806,38,0.135495931846427,1
630,807,38,0.133803596165038,1
630,808,38,0.11822304941884,1
631,806,38,0.115660297329129,1
633,800,38,0.150754334192982,1
633,825,38,0.135949270536193,1
634,799,38,0.123809971218281,1
634,805,38,0.116549332963006,1
634,806,38,0.118733505909961,1
634,826,38,0.168196049775255,1
635,801,38,0.114860495010895,1
635,802,38,0.137200268154534,1
635,803,38,0.152113773195834,1
635,804,38,0.137773613111477,1
635,805,38,0.116809483938663,1
635,806,38,0.114696867231096,1
635,807,38,0.118493505152473,1
635,828,38,0.150051561475854,1
636,801,38,0.146525767924697,1
636,802,38,0.189618039954479,1
636,803,38,0.180334442274465,1
636,804,38,0.132064105911148,1
637,801,38,0.133952691291874,1
637,802,38,0.187718348988871,1
637,803,38,0.169715006431582,1
638,802,38,0.123427293726068,1
638,803,38,0.127443452434509,1
640,805,38,0.117387245220453,1
641,804,38,0.117039615682226,1
641,805,38,0.123333903176635,1
641,819,38,0.125237221417051,1
641,820,38,0.166610742254426,1
641,821,38,0.138012071099485,1
642,804,38,0.138832176735149,1
642,805,38,0.14051264133535,1
642,806,38,0.120952962348228,1
642,812,38,0.113987840997985,1
642,813,38,0.153408498318593,1
642,814,38,0.164058942650336,1
642,815,38,0.122757755325522,1
642,819,38,0.118913974608511,1
642,820,38,0.142593872694337,1
642,821,38,0.117264977794954,1
643,803,38,0.136662665986686,1
643,804,38,0.153698456542751,1
643,805,38,0.147507899686349,1
643,806,38,0.130624066035621,1
643,811,38,0.114849248103618,1
643,812,38,0.181702737480744,1
643,813,38,0.237196968276608,2
643,814,38,0.231980570243401,1
643,815,38,0.164514624936487,1
644,802,38,0.150413923873771,1
644,803,38,0.178361463870129,1
644,804,38,0.158284474255723,1
644,805,38,0.13240485775948,1
644,806,38,0.117268993706348,1
644,811,38,0.158586150461809,1
644,812,38,0.279527288836313,2
644,813,38,0.32176146305988,2
644,814,38,0.262839304471469,2
644,815,38,0.177137529490451,1
644,816,38,0.122771357606051,1
644,818,38,0.136549231210881,1
644,819,38,0.149164045057725,1
645,801,38,0.166787760331162,1
645,802,38,0.183256306347005,1
645,803,38,0.170935772834237,1
645,804,38,0.134039569234265,1
645,811,38,0.170293191680558,1
645,812,38,0.282116762635565,1
645,813,38,0.283436690252118,2
645,814,38,0.211276957129098,1
645,815,38,0.172431458402836,1
645,816,38,0.156386479158857,1
645,817,38,0.167735303436612,1
645,818,38,0.238114150620843,3
645,819,38,0.276159081532564,3
645,820,38,0.146778334598483,1
646,803,38,0.156251386726002,1
646,804,38,0.128524733633194,1
646,811,38,0.144684266455273,1
646,812,38,0.211411307619378,1
646,813,38,0.202377226404789,1
646,814,38,0.174760086391322,1
646,815,38,0.224788037605701,1
646,816,38,0.261078874949371,3
646,817,38,0.248951152290991,3
646,818,38,0.31536836765756,3
646,819,38,0.331563961244123,3
646,820,38,0.162724965232335,3
647,811,38,0.129464633552443,1
647,812,38,0.160092882730959,1
647,813,38,0.148195774667659,1
647,814,38,0.168105167698336,1
647,815,38,0.291372319597016,3
647,816,38,0.365151560260482,3
647,817,38,0.323998620128134,3
647,818,38,0.373749120150322,3
647,819,38,0.344260718526396,3
647,820,38,0.161491244276796,3
648,811,38,0.191150905089858,1
648,812,38,0.229285528615006,1
648,813,38,0.163906031818831,1
648,814,38,0.179276985676222,1
648,815,38,0.279158413831355,1
648,816,38,0.3054903090994,3
648,817,38,0.25689792255137,3
648,818,38,0.286874428174259,3
648,819,38,0.249093558157793,3
649,810,38,0.131414670621307,1
649,811,38,0.274941636206195,1
649,812,38,0.334424467843455,1
649,813,38,0.207991494087683,1
649,814,38,0.182584071044087,1
649,815,38,0.211389167110812,1
649,816,38,0.181928806205448,1
649,817,38,0.145291905646762,1
649,818,38,0.143564745771846,1
650,811,38,0.194476774559406,1
650,812,38,0.237555244101933,1
650,813,38,0.164756851521698,1
651,812,38,0.120540548268711,1
624,805,39,0.141985208915483,1
624,811,39,0.125548272008678,1
624,812,39,0.166388218366466,1
625,806,39,0.114265704380495,1
625,812,39,0.137196593772261,1
625,813,39,0.14944050699315,1
625,815,39,0.135928861226967,1
625,816,39,0.118202157258097,1
628,806,39,0.115049772805407,1
628,807,39,0.114644707490436,1
629,806,39,0.125278887969875,1
629,807,39,0.123487014214866,1
630,805,39,0.114315767838961,1
630,806,39,0.122231776924672,1
630,807,39,0.119339625885703,1
631,800,39,0.117978255476785,1
632,800,39,0.145705615181568,1
633,799,39,0.14885619777372,1
633,800,39,0.135061341927745,1
634,798,39,0.129219910271585,1
634,799,39,0.119336940760196,1
635,798,39,0.12181893887797,1
635,801,39,0.119377959585375,1
635,802,39,0.134589407566156,1
635,803,39,0.129807999865084,1
635,828,39,0.148320574119404,1
635,829,39,0.204915871249268,1
636,797,39,0.120136472210506,1
636,801,39,0.158005444963454,1
636,802,39,0.203368767882583,1
636,803,39,0.172653252125088,1
636,829,39,0.151037391173512,1
636,830,39,0.217825012537652,1
637,801,39,0.14025592920464,1
637,802,39,0.19826196536678,1
637,803,39,0.168921363414402,1
638,802,39,0.123844430328954,1
638,803,39,0.122161622132368,1
641,795,39,0.148821750439913,1
641,819,39,0.118813482608725,1
641,820,39,0.117413177879955,1
642,795,39,0.165176461266499,1
642,804,39,0.114628714506056,1
643,795,39,0.156653778692333,1
643,803,39,0.121789555596654,1
643,804,39,0.13835822852943,1
643,805,39,0.128103981532366,1
643,806,39,0.115316919239621,1
643,812,39,0.160501975734191,1
643,813,39,0.190308611838163,1
643,814,39,0.174135264751962,1
643,815,39,0.138581623905493,1
644,796,39,0.114792283401525,1
644,802,39,0.132349989339581,1
644,803,39,0.158511120046874,1
644,804,39,0.156470354000352,1
644,805,39,0.13178176731946,1
644,811,39,0.14602555730722,1
644,812,39,0.237355908863637,1
644,813,39,0.254512047216001,2
644,814,39,0.202154761401161,1
644,815,39,0.153402480339935,1
644,816,39,0.11840590882124,1
644,818,39,0.134369286158913,1
644,819,39,0.141572135331456,1
645,800,39,0.115425749260719,1
645,801,39,0.148821738663047,1
645,802,39,0.163484278684371,1
645,803,39,0.154559180590142,1
645,804,39,0.132169296880572,1
645,811,39,0.152047363447,1
645,812,39,0.235623790928026,1
645,813,39,0.224640850331198,1
645,814,39,0.172660165145582,1
645,815,39,0.159693505642391,1
645,816,39,0.149076130751103,1
645,817,39,0.150216873347529,1
645,818,39,0.216055161522547,3
645,819,39,0.254226929283875,1
645,820,39,0.144156886607338,1
645,823,39,0.116603412332866,1
646,799,39,0.121824297352118,1
646,800,39,0.178673868801376,1
646,801,39,0.218428176519962,1
646,802,39,0.191636830368562,1
646,803,39,0.145652254200549,1
646,804,39,0.121688109670701,1
646,811,39,0.123679471763267,1
646,812,39,0.176672390380693,1
646,813,39,0.169500773457468,1
646,814,39,0.161997449319198,1
646,815,39,0.229672775531327,1
646,816,39,0.267842965192577,3
646,817,39,0.239476616278324,3
646,818,39,0.299714816117423,3
646,819,39,0.313818744041495,3
646,820,39,0.162721137750801,1
647,803,39,0.14671740109246,1
647,804,39,0.148261831110505,1
647,805,39,0.155274342570573,1
647,806,39,0.126297198264674,1
647,811,39,0.115086563735599,1
647,812,39,0.141057556937144,1
647,813,39,0.13231948725597,1
647,814,39,0.15792653995952,1
647,815,39,0.287715037334079,3
647,816,39,0.381860389678604,3
647,817,39,0.343631056595003,3
647,818,39,0.383267301229345,3
647,819,39,0.336001719987763,3
647,820,39,0.161118412244775,3
648,806,39,0.159149025784648,1
648,811,39,0.169566417709995,1
648,812,39,0.202184486211598,1
648,813,39,0.151179585056721,1
648,814,39,0.161863511019237,1
648,815,39,0.248639630624714,1
648,816,39,0.301877213638666,3
648,817,39,0.275574360122815,3
648,818,39,0.289672234737629,3
648,819,39,0.233469448783304,3
649,810,39,0.120242051816516,1
649,811,39,0.251691982375401,1
649,812,39,0.303317241737327,1
649,813,39,0.193764285927615,1
649,814,39,0.169072036641317,1
649,815,39,0.191137844545177,1
649,816,39,0.175509189300312,1
649,817,39,0.149423206776616,1
649,818,39,0.1378749648225,1
650,811,39,0.205244233834296,1
650,812,39,0.246350985097177,1
650,813,39,0.164719624847454,1
650,814,39,0.137990884517086,1
651,812,39,0.135710471019064,1
653,816,39,0.202871148175683,1
654,816,39,0.179873366183567,1
623,805,40,0.126502739911489,1
623,808,40,0.115973349988021,1
623,809,40,0.125647009255392,1
623,810,40,0.141859561529368,1
623,811,40,0.145174207645372,1
624,804,40,0.138611972889842,1
624,805,40,0.172406762314292,1
624,806,40,0.133412922180635,1
624,808,40,0.114842205537596,1
624,811,40,0.134647373301882,1
624,816,40,0.11477007223176,1
625,804,40,0.118326768279981,1
625,805,40,0.142474914568257,1
625,806,40,0.115752474861337,1
625,808,40,0.119195300389701,1
625,812,40,0.155219238613348,1
625,815,40,0.119224789662813,1
631,799,40,0.123728981709019,1
632,799,40,0.129542313762286,1
632,800,40,0.120966882604146,1
632,824,40,0.122283512698147,1
633,798,40,0.133272129744511,1
633,799,40,0.128580355772535,1
633,800,40,0.118736744548182,1
633,825,40,0.146182766694909,1
634,797,40,0.18080128902983,1
634,798,40,0.142179644977416,1
634,799,40,0.117357061112232,1
634,826,40,0.171129396292398,1
634,829,40,0.1471897711981,1
634,830,40,0.139664177005735,1
635,797,40,0.184189422791289,1
635,798,40,0.144941543875563,1
635,801,40,0.124890333821398,1
635,802,40,0.13174106646967,1
635,827,40,0.121359205349825,1
635,828,40,0.127419121428818,1
635,829,40,0.149011157779953,1
635,830,40,0.180423157407993,1
636,796,40,0.141205050410169,1
636,797,40,0.138514566429016,1
636,798,40,0.113938755019418,1
636,801,40,0.165785325252079,1
636,802,40,0.202404030552394,1
636,803,40,0.153819204752503,1
636,829,40,0.121258042068662,1
636,830,40,0.164214562161079,1
636,831,40,0.154348080262453,1
637,801,40,0.141994088672643,1
637,802,40,0.188679682804711,1
637,803,40,0.153879796729404,1
638,802,40,0.115624271895244,1
640,795,40,0.11728501024446,1
641,794,40,0.151537542906657,1
641,795,40,0.128786191841006,1
642,794,40,0.136973104181268,1
642,795,40,0.137997020264407,1
643,794,40,0.122290614148501,1
643,795,40,0.143518309588187,1
643,804,40,0.119158050161725,1
643,812,40,0.130618389586085,1
643,813,40,0.140904351683984,1
643,814,40,0.12164627824175,1
644,795,40,0.146018950485249,1
644,796,40,0.1155042538512,1
644,803,40,0.132243773782793,1
644,804,40,0.144591276319294,1
644,805,40,0.126269640397628,1
644,811,40,0.120443247799681,1
644,812,40,0.170996824108922,1
644,813,40,0.176784247056419,1
644,814,40,0.142692680602248,1
644,815,40,0.118108472287008,1
644,818,40,0.117152944466234,1
644,819,40,0.116196521603625,1
645,801,40,0.131333951979969,1
645,802,40,0.144845373985694,1
645,803,40,0.140937268025177,1
645,804,40,0.130076123779198,1
645,811,40,0.121488268027155,1
645,812,40,0.164381369694769,1
645,813,40,0.15641813537536,1
645,814,40,0.133503144753043,1
645,815,40,0.132464860893069,1
645,816,40,0.129759420291767,1
645,817,40,0.12897432727949,1
645,818,40,0.169222957182423,1
645,819,40,0.187922453858002,1
645,820,40,0.126827934519493,1
646,798,40,0.115140902196517,1
646,799,40,0.121725795642729,1
646,800,40,0.164343507069747,1
646,801,40,0.194165358884925,1
646,802,40,0.178513774081454,1
646,803,40,0.143090856450458,1
646,804,40,0.118550293201573,1
646,812,40,0.130284232782857,1
646,813,40,0.126091809717121,1
646,814,40,0.13635639680276,1
646,815,40,0.195369743666613,1
646,816,40,0.231533402631555,1
646,817,40,0.207835709700812,3
646,818,40,0.24644654259,3
646,819,40,0.246522102963917,1
646,820,40,0.14807457893699,1
646,824,40,0.117854963463921,1
647,799,40,0.139906497805876,1
647,800,40,0.177435554867996,1
647,801,40,0.192617207377142,1
647,802,40,0.164505792286793,1
647,803,40,0.135752514431607,1
647,804,40,0.139848272979092,1
647,805,40,0.154633940137152,1
647,806,40,0.128365675277503,1
647,812,40,0.118796135284726,1
647,814,40,0.135514456857052,1
647,815,40,0.236526440619297,1
647,816,40,0.326132800277821,3
647,817,40,0.307003071124075,3
647,818,40,0.32698210076494,3
647,819,40,0.275529231171311,3
647,820,40,0.147372277294513,1
648,803,40,0.14373122355328,1
648,804,40,0.189040761524205,1
648,805,40,0.21999419353386,1
648,806,40,0.167375555503005,1
648,811,40,0.145245799215359,1
648,812,40,0.168023742445023,1
648,813,40,0.136394377196444,1
648,814,40,0.133314349810049,1
648,815,40,0.192348082429396,1
648,816,40,0.257589907659005,1
648,817,40,0.254820836649306,3
648,818,40,0.247462485734682,3
648,819,40,0.188768397938238,1
649,806,40,0.150237082450029,1
649,811,40,0.206716695422634,1
649,812,40,0.242332247255024,1
649,813,40,0.17198293645137,1
649,814,40,0.141143716490694,1
649,815,40,0.153443452057649,1
649,816,40,0.155747183750864,1
649,817,40,0.141402418911801,1
649,818,40,0.121813686395618,1
650,811,40,0.199395182545667,1
650,812,40,0.233171329190828,1
650,813,40,0.16528396050171,1
650,814,40,0.128965753720854,1
650,815,40,0.124294235958843,1
651,812,40,0.15253100401365,1
651,813,40,0.133142855083588,1
651,814,40,0.11918079129047,1
652,816,40,0.191071364135146,1
653,814,40,0.208633050653998,1
653,815,40,0.242467610555803,1
653,816,40,0.285680913440127,1
653,817,40,0.216506003516666,1
654,815,40,0.22734043782997,1
654,816,40,0.27525977647131,1
654,817,40,0.187333857859254,1
655,816,40,0.162520648379612,1
622,808,41,0.124185311722815,1
622,809,41,0.131544275034485,1
622,810,41,0.152750807445504,1
622,811,41,0.15137632938444,1
622,815,41,0.138860806297024,1
623,805,41,0.12598182556313,1
623,806,41,0.114673996556821,1
623,807,41,0.114215546707099,1
623,808,41,0.133232665465678,1
623,809,41,0.145613355211296,1
623,810,41,0.151981189235492,1
624,804,41,0.141642631652881,1
624,805,41,0.173406759582059,1
624,806,41,0.132822453660151,1
624,808,41,0.124924474956682,1
624,809,41,0.120038453352634,1
625,804,41,0.121660728456649,1
625,805,41,0.140792954306042,1
625,808,41,0.120024085575798,1
629,820,41,0.120199737536048,1
629,821,41,0.200513231120812,1
630,799,41,0.134347063212283,1
630,821,41,0.159191104527791,1
631,798,41,0.137758008763684,1
631,799,41,0.122899807886336,1
631,822,41,0.134294149752182,1
632,798,41,0.123007424890209,1
632,824,41,0.125663508645021,1
633,797,41,0.181413109008841,1
633,798,41,0.13629498044522,1
633,825,41,0.131962860191921,1
633,830,41,0.118511641526512,1
634,797,41,0.214675030565679,1
634,798,41,0.162414868566875,1
634,799,41,0.118414753247801,1
634,826,41,0.138116367027073,1
634,829,41,0.117073792148109,1
634,831,41,0.123766809003443,1
635,797,41,0.210628546426621,1
635,798,41,0.167107678903082,1
635,799,41,0.119238709918731,1
635,801,41,0.122826379125212,1
635,802,41,0.123607208911903,1
635,831,41,0.117773726640468,1
636,796,41,0.163690114752843,1
636,797,41,0.147653779728697,1
636,798,41,0.121288473491075,1
636,801,41,0.150782280696614,1
636,802,41,0.171722090640604,1
636,803,41,0.126372947068451,1
637,796,41,0.12203356048867,1
637,801,41,0.132048112926769,1
637,802,41,0.155586170435374,1
637,803,41,0.127566391141385,1
643,795,41,0.119141138581777,1
644,803,41,0.114250877305875,1
644,804,41,0.129202527616987,1
644,805,41,0.11498028929448,1
644,812,41,0.114122368141259,1
644,813,41,0.116296236330238,1
645,801,41,0.122049047067801,1
645,802,41,0.13738883933707,1
645,803,41,0.13711780653699,1
645,804,41,0.13035732001486,1
645,818,41,0.118608447367159,1
645,819,41,0.120185275544282,1
646,798,41,0.117677851172255,1
646,799,41,0.116552606931826,1
646,800,41,0.141971347543897,1
646,801,41,0.169197931341623,1
646,802,41,0.170539481284628,1
646,803,41,0.147040393426474,1
646,804,41,0.124381985389337,1
646,815,41,0.144081102472963,1
646,816,41,0.170691308644437,1
646,817,41,0.166626429040282,1
646,818,41,0.176838950600192,1
646,819,41,0.164821612509255,1
646,820,41,0.125732144221577,1
646,824,41,0.11634439193637,1
647,800,41,0.153238016402631,1
647,801,41,0.16022682103092,1
647,802,41,0.144923678369449,1
647,803,41,0.130713464227392,1
647,804,41,0.135007097681757,1
647,805,41,0.146981391326517,1
647,806,41,0.128157519166379,1
647,815,41,0.165791472776266,1
647,816,41,0.227119786463745,1
647,817,41,0.234343951764217,3
647,818,41,0.235976390303814,3
647,819,41,0.194185391334431,1
647,820,41,0.127371472227935,1
647,824,41,0.117781687802059,1
648,802,41,0.118863051438808,1
648,803,41,0.137792408990026,1
648,804,41,0.177405570966501,1
648,805,41,0.20197971006109,1
648,806,41,0.160743695914153,1
648,811,41,0.126635029450174,1
648,812,41,0.137967260123371,1
648,813,41,0.116669009477928,1
648,815,41,0.139954665188874,1
648,816,41,0.190374432743683,1
648,817,41,0.202443742145419,1
648,818,41,0.186793547012167,1
648,819,41,0.14295077062631,1
648,823,41,0.140720126165097,1
649,805,41,0.18750876787693,1
649,806,41,0.142230073518736,1
649,811,41,0.167596289307293,1
649,812,41,0.187590157799644,1
649,813,41,0.147743366350327,1
649,814,41,0.117392862785658,1
649,815,41,0.119271850020383,1
649,816,41,0.12702956624671,1
649,817,41,0.12133095264767,1
650,811,41,0.179934959194101,1
650,812,41,0.21068392125177,1
650,813,41,0.170302448297437,1
650,814,41,0.127100533642785,1
650,815,41,0.113959152551778,1
651,811,41,0.142687522334827,1
651,812,41,0.176118123947089,1
651,813,41,0.163459688587623,1
651,814,41,0.128985585963634,1
651,815,41,0.114581206627568,1
651,816,41,0.127268495309368,1
651,817,41,0.140817132212471,1
652,813,41,0.185122633450502,1
652,814,41,0.181162332418726,1
652,815,41,0.176510423139036,1
652,816,41,0.188235871599748,1
653,813,41,0.238440558246072,1
653,814,41,0.279145482832203,4
653,815,41,0.308791930001322,4
653,816,41,0.314772010703947,1
653,817,41,0.204648607046391,1
654,814,41,0.228637259234924,1
654,815,41,0.293579374995113,4
654,816,41,0.33181765849707,4
654,817,41,0.212748594336797,1
655,815,41,0.162626722614005,1
655,816,41,0.189383279902476,1
621,810,42,0.123080253031153,1
621,811,42,0.13636939846311,1
621,812,42,0.176209241561334,1
621,813,42,0.174732681623538,1
621,814,42,0.121659809861081,1
622,808,42,0.127282015151833,1
622,809,42,0.128311772560637,1
622,810,42,0.143288955117797,1
622,811,42,0.145533955578979,1
622,812,42,0.16351214274994,1
623,805,42,0.115863990007941,1
623,808,42,0.13635667944755,1
623,809,42,0.149819368780696,1
623,810,42,0.142395020307557,1
623,811,42,0.143022833270947,1
624,804,42,0.134505721154521,1
624,805,42,0.148906002141129,1
624,806,42,0.119941612181387,1
624,808,42,0.125838053579842,1
624,809,42,0.126626773866927,1
624,811,42,0.12715025557213,1
625,804,42,0.118551576879995,1
625,805,42,0.125293974135552,1
625,812,42,0.134937390410371,1
628,821,42,0.119986694025426,1
629,799,42,0.136048349312028,1
629,821,42,0.150038877790894,1
629,822,42,0.185958602525017,1
630,798,42,0.159862327020211,1
630,799,42,0.132866039842175,1
630,821,42,0.12360221552061,1
630,822,42,0.18258909976598,1
631,798,42,0.133748350885418,1
631,799,42,0.120297132220008,1
631,823,42,0.149353605497027,1
631,824,42,0.187869363744908,1
632,797,42,0.150408836267547,1
632,798,42,0.119821923889599,1
632,824,42,0.12035211840857,1
632,825,42,0.165739477911734,1
633,797,42,0.177926932835778,1
633,798,42,0.132192897720555,1
633,825,42,0.11672619794048,1
633,826,42,0.180010861097139,1
633,829,42,0.13429025160945,1
634,797,42,0.219073737220805,1
634,798,42,0.162603145327754,1
634,801,42,0.117911480645097,1
635,797,42,0.201533767243334,1
635,798,42,0.161476005011857,1
635,799,42,0.118571220692915,1
635,801,42,0.119467652198802,1
635,802,42,0.116229508606016,1
636,797,42,0.139079255389259,1
636,798,42,0.114775112730519,1
636,801,42,0.127056028865193,1
636,802,42,0.134766260766764,1
637,801,42,0.117275270776064,1
637,802,42,0.123100332588125,1
645,801,42,0.119681308106469,1
645,802,42,0.133558366478931,1
645,803,42,0.134307351619258,1
645,804,42,0.128827964385626,1
645,827,42,0.12532309832581,1
646,800,42,0.120132821381965,1
646,801,42,0.147516614567381,1
646,802,42,0.160456740790891,1
646,803,42,0.147071354807868,1
646,804,42,0.133250460310595,1
646,805,42,0.124601623945064,1
646,817,42,0.124012003358951,1
646,818,42,0.120606840248882,1
646,825,42,0.115328389907358,1
646,826,42,0.12936595519006,1
647,801,42,0.131312341430384,1
647,802,42,0.129846192242361,1
647,803,42,0.126644215405856,1
647,804,42,0.134770229570694,1
647,805,42,0.148794922738576,1
647,806,42,0.138919985049975,1
647,816,42,0.139402000409081,1
647,817,42,0.159800204050696,1
647,818,42,0.155063348234681,1
647,819,42,0.127802741070332,1
647,824,42,0.134568668504674,1
647,825,42,0.158963375264944,1
648,803,42,0.129441986638627,1
648,804,42,0.160025401287296,1
648,805,42,0.173664460969534,1
648,806,42,0.1532649029883,1
648,807,42,0.114962835978684,1
648,816,42,0.12570962685329,1
648,817,42,0.140802034269927,1
648,818,42,0.131249323419033,1
648,823,42,0.127474072286782,1
648,824,42,0.172574877080136,1
649,804,42,0.176740013146751,1
649,805,42,0.163255748594619,1
649,806,42,0.131785618354727,1
649,811,42,0.128031848226531,1
649,812,42,0.131847446902585,1
649,813,42,0.115175808828109,1
649,823,42,0.178955500781089,1
650,811,42,0.145856688821936,1
650,812,42,0.168137554080548,1
650,813,42,0.157444041748897,1
650,814,42,0.117438474588679,1
651,811,42,0.141095160471109,1
651,812,42,0.179447255608591,1
651,813,42,0.178039484346613,1
651,814,42,0.130177499043954,1
651,816,42,0.119989202497939,1
651,817,42,0.138511056922871,1
651,818,42,0.12133539252625,1
652,811,42,0.13938210928197,1
652,812,42,0.206661862333333,1
652,813,42,0.228088363052334,1
652,814,42,0.190718399676504,4
652,815,42,0.17891013629226,4
652,816,42,0.167883220876823,1
652,817,42,0.148037964659791,1
653,812,42,0.248576129761846,1
653,813,42,0.320003412464767,4
653,814,42,0.327206285191043,4
653,815,42,0.343683911170772,4
653,816,42,0.29910797775284,4
653,817,42,0.180678727182675,1
654,813,42,0.238507026879237,1
654,814,42,0.297085960477402,4
654,815,42,0.364933570466031,4
654,816,42,0.353595463136571,4
654,817,42,0.215069272940558,4
655,814,42,0.159624728743439,1
655,815,42,0.206657481339084,4
655,816,42,0.212693031081788,4
620,810,43,0.146907444383278,1
620,811,43,0.134249962949979,1
620,812,43,0.165376573777969,1
620,813,43,0.184728202645763,1
620,814,43,0.150974455600225,1
620,815,43,0.115676902710554,1
621,808,43,0.169214560276781,1
621,809,43,0.135396299557878,1
621,810,43,0.122813401018595,1
621,811,43,0.131384474736219,1
621,812,43,0.15236035722156,1
621,813,43,0.14971163400816,1
622,807,43,0.128884905533987,1
622,808,43,0.118458492529086,1
622,809,43,0.113806371265803,1
622,810,43,0.121004250600785,1
622,811,43,0.131990783141821,1
622,812,43,0.146442387711584,1
622,814,43,0.136894599590787,1
623,808,43,0.120612681574546,1
623,809,43,0.130976653634543,1
623,810,43,0.119602308887605,1
623,811,43,0.1293493969161,1
623,815,43,0.119512734042841,1
624,803,43,0.15565077832367,1
624,804,43,0.132398345152439,1
624,805,43,0.121937838119719,1
624,808,43,0.115482289995627,1
624,809,43,0.120446780859559,1
625,803,43,0.126124396306059,1
625,804,43,0.11785827276334,1
628,799,43,0.114846515870646,1
629,798,43,0.158331287299102,1
629,799,43,0.133340553337474,1
629,822,43,0.123593170887323,1
629,823,43,0.136597174833421,1
629,824,43,0.131921476283888,1
630,798,43,0.148980985448598,1
630,799,43,0.130758322310972,1
630,822,43,0.114618021111493,1
630,823,43,0.13801510953098,1
630,824,43,0.148773747933042,1
630,825,43,0.152247899925655,1
631,798,43,0.139214771789299,1
631,799,43,0.120213704899431,1
631,824,43,0.138314088834692,1
632,797,43,0.154924887618076,1
632,798,43,0.126863194457072,1
632,825,43,0.144365502016247,1
632,829,43,0.125369522732602,1
633,797,43,0.16815123879914,1
633,798,43,0.128808379457037,1
633,826,43,0.155808870976328,1
633,828,43,0.121185826324763,1
634,797,43,0.19816195621851,1
634,798,43,0.150121763375623,1
634,801,43,0.124583617116554,1
634,802,43,0.11599154524639,1
635,797,43,0.175277868093257,1
635,798,43,0.141504229920608,1
635,801,43,0.120595157597553,1
643,830,43,0.119841673694315,1
643,831,43,0.148776044421963,1
645,801,43,0.123455063576706,1
645,802,43,0.133165937741455,1
645,803,43,0.134321530966233,1
645,804,43,0.129266581992569,1
645,827,43,0.114261099625788,1
645,828,43,0.148940237491343,1
646,801,43,0.131511688445547,1
646,802,43,0.150147731365724,1
646,803,43,0.153255917239344,1
646,804,43,0.156889810645891,1
646,805,43,0.154697829636606,1
646,806,43,0.125358782230574,1
646,825,43,0.123209998766727,1
646,826,43,0.139472897143959,1
646,827,43,0.18193383492734,1
647,802,43,0.1210355888419,1
647,803,43,0.134617295185457,1
647,804,43,0.155222559689633,1
647,805,43,0.17713850697035,1
647,806,43,0.169122559397567,1
647,807,43,0.118654883550818,1
647,824,43,0.147187816238301,1
647,825,43,0.196334469219935,1
647,826,43,0.190107027218411,1
648,803,43,0.126675341663378,1
648,804,43,0.150710712680359,1
648,805,43,0.16154685463927,1
648,806,43,0.161518719705778,1
648,807,43,0.13194221534537,1
648,823,43,0.115038231476473,1
648,824,43,0.185535589265867,1
648,825,43,0.223467474038369,1
649,804,43,0.151745569472252,1
649,805,43,0.137673603963208,1
649,806,43,0.122984954629387,1
649,823,43,0.138345167984749,1
649,824,43,0.190269854171305,1
650,809,43,0.120120962077643,1
650,810,43,0.13811049037081,1
650,811,43,0.136623802328032,1
650,812,43,0.137811640612627,1
650,813,43,0.136373920779753,1
651,810,43,0.132707134585745,1
651,811,43,0.163821968547476,1
651,812,43,0.187329158889617,1
651,813,43,0.180279079226183,1
651,814,43,0.129747996731496,1
651,817,43,0.117158726907567,1
652,811,43,0.17454726664116,1
652,812,43,0.246038851033853,1
652,813,43,0.255692890042038,4
652,814,43,0.191870942692921,4
652,815,43,0.165047445696634,1
652,816,43,0.141448937533523,1
652,817,43,0.12584350626892,1
653,812,43,0.289885019157193,4
653,813,43,0.370529136485306,4
653,814,43,0.324858802439677,4
653,815,43,0.305501497122346,4
653,816,43,0.241435203352092,1
654,812,43,0.206975456728072,1
654,813,43,0.309347633212609,4
654,814,43,0.335088494670591,4
654,815,43,0.370729178335578,4
654,816,43,0.319729906522773,4
654,817,43,0.190374927372066,1
655,813,43,0.153546876497134,1
655,814,43,0.184182851299916,4
655,815,43,0.225009112939111,4
655,816,43,0.210839163902793,1
619,812,44,0.164972544827228,1
619,813,44,0.183173279439881,1
619,814,44,0.179666317097871,1
619,815,44,0.153381164212007,1
620,809,44,0.165432207694175,1
620,810,44,0.139491068848597,1
620,811,44,0.140976249452493,1
620,812,44,0.160546539396114,1
620,813,44,0.161510110816543,1
620,814,44,0.131882306426711,1
621,808,44,0.157247556512235,1
621,809,44,0.132465426182649,1
621,810,44,0.122352313150831,1
621,811,44,0.123990015949646,1
621,812,44,0.1260654648673,1
621,813,44,0.117579773430052,1
622,807,44,0.11416939316823,1
622,811,44,0.11434120587008,1
622,812,44,0.124482618711519,1
622,813,44,0.127321420546335,1
623,803,44,0.118742232567859,1
623,812,44,0.145603474420505,1
623,814,44,0.138968776606885,1
624,802,44,0.132351037480678,1
624,803,44,0.166991299910713,1
624,804,44,0.123026468082949,1
624,812,44,0.126570138917088,1
624,814,44,0.128038089965648,1
625,803,44,0.129644018779297,1
629,798,44,0.136000605896215,1
629,799,44,0.130899974458332,1
630,798,44,0.13724686921432,1
630,799,44,0.12685957895913,1
630,825,44,0.119402384805996,1
631,797,44,0.16195073049075,1
631,798,44,0.140126313014596,1
631,799,44,0.116359678308774,1
631,825,44,0.121388235325153,1
631,829,44,0.113870543410047,1
632,797,44,0.153942214120576,1
632,798,44,0.126861840117452,1
632,825,44,0.114625864504421,1
632,826,44,0.155289723157907,1
632,828,44,0.133691103538534,1
633,797,44,0.146623386369116,1
633,798,44,0.117080139879022,1
633,826,44,0.115650640298797,1
634,797,44,0.157140528351675,1
634,798,44,0.125775212221485,1
634,801,44,0.123403657555486,1
634,802,44,0.117299425128761,1
635,798,44,0.115246823331649,1
635,801,44,0.121974004875999,1
636,835,44,0.143289520407378,1
637,835,44,0.18725139624171,1
638,835,44,0.154916714472892,1
639,801,44,0.115873223071088,1
639,835,44,0.134612266463564,1
642,833,44,0.146112941654861,1
643,830,44,0.115268422104368,1
643,831,44,0.137230546477685,1
643,832,44,0.15309098222739,1
644,830,44,0.120335018398763,1
644,831,44,0.141308639725782,1
645,801,44,0.11930900603343,1
645,802,44,0.125990917303881,1
645,803,44,0.129209146215824,1
645,804,44,0.125720650000108,1
645,828,44,0.138238599121973,1
645,829,44,0.155754756275868,1
646,801,44,0.11610263642581,1
646,802,44,0.136040435257903,1
646,803,44,0.157794839264147,1
646,804,44,0.178406204185046,1
646,805,44,0.170139786220671,1
646,806,44,0.127099132195701,1
646,825,44,0.119066013951912,1
646,826,44,0.139438567578815,1
646,827,44,0.1741553207552,1
646,828,44,0.251595812485532,1
647,802,44,0.114216535963864,1
647,803,44,0.144325943522483,1
647,804,44,0.180231418248433,1
647,805,44,0.201884482320521,1
647,806,44,0.184861434333748,1
647,807,44,0.120950018131663,1
647,824,44,0.140486225824331,1
647,825,44,0.205648651421623,1
647,826,44,0.197050985539987,1
647,827,44,0.195165356152692,1
648,803,44,0.123100014612736,1
648,804,44,0.145020201565306,1
648,805,44,0.157627313341616,1
648,806,44,0.167504747725864,1
648,807,44,0.14034639909124,1
648,824,44,0.185150450408605,1
648,825,44,0.240275323347995,1
648,826,44,0.177099937733353,1
649,804,44,0.124983712593964,1
649,805,44,0.116630781770052,1
649,806,44,0.115449573861161,1
649,807,44,0.114765997436035,1
649,809,44,0.118320432325934,1
649,810,44,0.115644928518661,1
649,824,44,0.180341661493482,1
649,825,44,0.197887107713763,1
650,809,44,0.148835694249563,1
650,810,44,0.176619194275802,1
650,811,44,0.148962648867833,1
650,812,44,0.118686963734506,1
650,824,44,0.149326766018823,1
651,809,44,0.124162982784388,1
651,810,44,0.182428663516936,1
651,811,44,0.209113805888414,1
651,812,44,0.194266592827285,1
651,813,44,0.169752892610337,1
651,814,44,0.126310623892209,1
652,810,44,0.136091299543274,1
652,811,44,0.212383982557425,1
652,812,44,0.265929836822568,1
652,813,44,0.267210335490887,4
652,814,44,0.198614093667918,4
652,815,44,0.151398952744523,1
652,816,44,0.119931955151055,1
653,811,44,0.159465446627289,1
653,812,44,0.283009708189039,4
653,813,44,0.36272646796047,4
653,814,44,0.293497478667149,4
653,815,44,0.245692964471833,4
653,816,44,0.191305394021441,1
654,812,44,0.226286031440087,4
654,813,44,0.33982946061293,4
654,814,44,0.322716260714946,4
654,815,44,0.321283534273366,4
654,816,44,0.268617482578953,1
655,813,44,0.181276144054251,4
655,814,44,0.186623500840256,4
655,815,44,0.212426379275956,1
618,813,45,0.143745497115186,1
618,814,45,0.144707678865396,1
619,810,45,0.114157616301972,1
619,811,45,0.153311091857767,1
619,812,45,0.185730614171113,1
619,813,45,0.17019783439446,1
619,814,45,0.143432997969009,1
619,815,45,0.118581914087478,1
620,808,45,0.158891077082981,1
620,809,45,0.136141527877868,1
620,810,45,0.120862174486239,1
620,811,45,0.13254471982317,1
620,812,45,0.140462106802233,1
620,813,45,0.125341658667034,1
621,807,45,0.132522273116081,1
621,808,45,0.130756602888498,1
621,809,45,0.120138203409846,1
621,810,45,0.114480926611374,1
624,802,45,0.123572902900491,1
624,803,45,0.15097931944599,1
625,803,45,0.117678899313352,1
627,824,45,0.11555276276332,1
628,799,45,0.119799265198917,1
629,798,45,0.122958044489986,1
629,799,45,0.128887343345303,1
629,826,45,0.123064884220686,1
630,797,45,0.127586800450611,1
630,798,45,0.126791732432613,1
630,799,45,0.122717348897389,1
631,797,45,0.15398435174805,1
631,798,45,0.138069071132178,1
631,799,45,0.113917509552687,1
631,826,45,0.169181161084071,1
631,828,45,0.174947338564837,1
632,797,45,0.146340034966929,1
632,798,45,0.123538467343551,1
632,826,45,0.114338132107987,1
632,827,45,0.129284541713613,1
633,797,45,0.123176422921023,1
634,797,45,0.117932431690172,1
634,801,45,0.117830314482842,1
635,801,45,0.11907857986821,1
637,835,45,0.126888714926255,1
637,836,45,0.139019370024333,1
638,801,45,0.113922868026835,1
638,835,45,0.124680717378858,1
638,836,45,0.148393885111865,1
639,801,45,0.131468514453842,1
639,802,45,0.129130382534286,1
639,835,45,0.122556476904293,1
639,836,45,0.140953578984945,1
640,801,45,0.125131206066989,1
640,802,45,0.124190199122313,1
640,835,45,0.138845355048493,1
641,800,45,0.116604766672486,1
641,801,45,0.122130272114387,1
641,802,45,0.114188789666959,1
642,801,45,0.11381626383346,1
642,833,45,0.122290767247762,1
642,834,45,0.174887158778255,1
643,832,45,0.123323763294787,1
643,833,45,0.142694812215041,1
644,831,45,0.118117210721772,1
644,832,45,0.129155349490754,1
645,802,45,0.117296045168145,1
645,803,45,0.121500645513593,1
645,804,45,0.117528708937954,1
645,828,45,0.12506324177181,1
645,829,45,0.147627105126621,1
645,830,45,0.147120758761824,1
645,831,45,0.125663873727875,1
646,802,45,0.122369990227085,1
646,803,45,0.154721748451978,1
646,804,45,0.181403864168828,1
646,805,45,0.164222982620454,1
646,806,45,0.117444469013605,1
646,826,45,0.129916865216781,1
646,827,45,0.157109590524013,1
646,828,45,0.210625555102591,1
646,829,45,0.264409985124405,1
647,803,45,0.148618081314833,1
647,804,45,0.190041583172611,1
647,805,45,0.205628583641518,1
647,806,45,0.180289313322962,1
647,807,45,0.118222531236725,1
647,824,45,0.120706967165814,1
647,825,45,0.183140916611402,1
647,826,45,0.182680276264555,1
647,827,45,0.179091394040849,1
647,828,45,0.21490491499505,1
648,803,45,0.120069402957162,1
648,804,45,0.139212039556327,1
648,805,45,0.155941619812797,1
648,806,45,0.166006094386967,1
648,807,45,0.14123448079895,1
648,824,45,0.166225992033751,1
648,825,45,0.224532691591478,1
648,826,45,0.166675962539767,1
648,827,45,0.129213491879474,1
649,806,45,0.115255220237292,1
649,807,45,0.117616646798308,1
649,808,45,0.115796732324737,1
649,809,45,0.120852435017843,1
649,824,45,0.163629711205801,1
649,825,45,0.1861217474533,1
649,826,45,0.122173693420284,1
650,808,45,0.113814709287114,1
650,809,45,0.161512148214406,1
650,810,45,0.196209540222662,1
650,811,45,0.154656104199451,1
650,824,45,0.125876422610113,1
651,809,45,0.138083839322467,1
651,810,45,0.216313239769742,1
651,811,45,0.234106577247905,1
651,812,45,0.190182564038595,1
651,813,45,0.163253299006438,1
651,814,45,0.130534879827443,1
652,810,45,0.149437492115388,1
652,811,45,0.22064385258416,1
652,812,45,0.255509642003051,1
652,813,45,0.270932178534654,1
652,814,45,0.222705322361565,1
652,815,45,0.162373060691656,1
652,816,45,0.120324902070646,1
653,811,45,0.147361842991007,1
653,812,45,0.236570109239385,1
653,813,45,0.311334202120608,4
653,814,45,0.264993764384853,4
653,815,45,0.216092023113937,1
653,816,45,0.178210072254372,1
653,817,45,0.135140847551858,1
654,812,45,0.212336309802809,1
654,813,45,0.307192113381262,4
654,814,45,0.270257246329363,4
654,815,45,0.248929482857075,1
654,816,45,0.221351901337372,1
655,813,45,0.185836287992053,1
618,811,46,0.138175157143437,1
618,812,46,0.148856692402103,1
618,813,46,0.124852412312045,1
619,811,46,0.155602316519015,1
619,812,46,0.179708101419357,1
619,813,46,0.143319045011089,1
619,820,46,0.172173933668355,1
620,808,46,0.128704637042164,1
620,811,46,0.118034972864687,1
620,812,46,0.118907485555202,1
620,820,46,0.123678600275164,1
622,824,46,0.125882228605179,1
624,803,46,0.114521509692502,1
626,824,46,0.193585159791819,1
626,827,46,0.11872151706011,1
627,799,46,0.133194932386184,1
627,825,46,0.11792399945393,1
628,798,46,0.135232589340014,1
628,799,46,0.136294379825041,1
629,798,46,0.117521619264466,1
629,799,46,0.124716130415698,1
629,827,46,0.115422934589683,1
630,797,46,0.117644369541481,1
630,798,46,0.114425257364569,1
630,799,46,0.115478391852896,1
630,826,46,0.136890925208514,1
630,828,46,0.13166935713102,1
631,797,46,0.141423487725538,1
631,798,46,0.126877621118239,1
631,826,46,0.124197312349533,1
631,827,46,0.155440667252746,1
631,828,46,0.114920403929554,1
632,796,46,0.129336065503495,1
632,797,46,0.131532227300302,1
632,798,46,0.115407754209076,1
638,801,46,0.116381100428499,1
638,802,46,0.116914144949105,1
638,836,46,0.119673111407553,1
638,837,46,0.114871706587574,1
639,800,46,0.123281825874039,1
639,801,46,0.153787171676279,1
639,802,46,0.154637673403756,1
639,836,46,0.117345119369845,1
640,800,46,0.125029265512653,1
640,801,46,0.14772000104767,1
640,802,46,0.143039579974767,1
640,836,46,0.122164330811608,1
641,800,46,0.123198516322124,1
641,801,46,0.1336324076371,1
641,802,46,0.124965835310983,1
642,801,46,0.115028056264026,1
642,834,46,0.152101819676581,1
643,833,46,0.120581861515547,1
643,834,46,0.164589349152899,1
644,833,46,0.138295010311353,1
645,829,46,0.128718545521215,1
645,830,46,0.147786822986822,1
645,831,46,0.140599448616543,1
646,803,46,0.138322827269456,1
646,804,46,0.164670880398009,1
646,805,46,0.145579426059605,1
646,827,46,0.12997865843404,1
646,828,46,0.160124821592253,1
646,829,46,0.207268276730731,1
646,830,46,0.239770001570563,1
647,803,46,0.138890166024608,1
647,804,46,0.179240795366208,1
647,805,46,0.187749746114317,1
647,806,46,0.160483285847438,1
647,825,46,0.140421241076315,1
647,826,46,0.150732476329205,1
647,827,46,0.149398569572403,1
647,828,46,0.16524045675775,1
647,829,46,0.208302474018113,1
648,804,46,0.133021470923059,1
648,805,46,0.15256141188233,1
648,806,46,0.155139344352649,1
648,807,46,0.132621222346387,1
648,824,46,0.130229729445812,1
648,825,46,0.180062832407939,1
648,826,46,0.148816898371014,1
648,827,46,0.119855994363686,1
648,828,46,0.120794316182856,1
649,806,46,0.121454009123209,1
649,807,46,0.12065579668192,1
649,808,46,0.116607122045738,1
649,809,46,0.116088162657178,1
649,824,46,0.133195650775026,1
649,825,46,0.156382003949678,1
649,826,46,0.115623270861612,1
650,808,46,0.117523020711551,1
650,809,46,0.157583491622267,1
650,810,46,0.188250993096024,1
650,811,46,0.145015526149401,1
651,809,46,0.146839951162749,1
651,810,46,0.221814378875354,1
651,811,46,0.223890593289315,1
651,812,46,0.174341230365962,1
651,813,46,0.158084385297986,1
651,814,46,0.135544523196611,1
652,810,46,0.159462172658469,1
652,811,46,0.203162554954391,1
652,812,46,0.224057801236458,1
652,813,46,0.257769858175439,1
652,814,46,0.240510931334369,1
652,815,46,0.18209119741429,1
652,816,46,0.126114574399599,1
653,811,46,0.132906081187455,1
653,812,46,0.186696906047647,1
653,813,46,0.245675134296317,1
653,814,46,0.237922635221743,1
653,815,46,0.207354294961885,1
653,816,46,0.175698679078416,1
653,817,46,0.146959121272422,1
654,813,46,0.230951578330905,1
654,814,46,0.202898682488996,1
654,815,46,0.182237630969352,1
654,816,46,0.176462844599351,1
618,811,47,0.137782186670114,1
618,812,47,0.137550111743618,1
618,819,47,0.123028682133806,1
619,811,47,0.143948636281284,1
619,812,47,0.149520365923251,1
620,807,47,0.145455262558638,1
620,820,47,0.113790554934417,1
621,821,47,0.126453642156056,1
621,825,47,0.127786583209825,1
622,822,47,0.124986350612006,1
622,824,47,0.13198052549131,1
623,831,47,0.139143863277555,1
623,832,47,0.130709153894341,1
624,824,47,0.114129999550595,1
624,825,47,0.151627847917129,1
624,826,47,0.116108795726863,1
625,824,47,0.179307287553105,1
625,826,47,0.168521950995235,1
626,824,47,0.142186864196433,1
626,825,47,0.18773975933173,1
626,826,47,0.138088714945098,1
627,798,47,0.152121604811896,1
627,799,47,0.155190349960416,1
628,798,47,0.157160925884035,1
628,799,47,0.151383501495992,1
629,798,47,0.119635731634048,1
629,799,47,0.119816459423655,1
631,797,47,0.124172934236377,1
638,802,47,0.11751080810124,1
639,800,47,0.119683451496128,1
639,801,47,0.149960738283266,1
639,802,47,0.155442692873743,1
640,800,47,0.125301240462034,1
640,801,47,0.144445090078424,1
640,802,47,0.141259989491267,1
641,800,47,0.121625904263122,1
641,801,47,0.131653411254105,1
641,802,47,0.127743267895726,1
642,801,47,0.115101426140818,1
642,802,47,0.119685300464131,1
642,834,47,0.122751513586405,1
642,835,47,0.144996636055922,1
643,834,47,0.144880928344929,1
645,830,47,0.138298720024225,1
645,831,47,0.15797252862226,1
645,832,47,0.150798780086242,1
646,803,47,0.117117613867458,1
646,804,47,0.136010239372815,1
646,805,47,0.124768961437735,1
646,828,47,0.115662428941922,1
646,829,47,0.148040484909171,1
646,830,47,0.195950343173172,1
646,831,47,0.203288449654698,1
647,803,47,0.124743228984959,1
647,804,47,0.15788205873566,1
647,805,47,0.162676491650814,1
647,806,47,0.136758553231765,1
647,828,47,0.121186379837477,1
647,829,47,0.148684455733068,1
647,830,47,0.183115407919085,1
648,804,47,0.136002348872422,1
648,805,47,0.155970296482137,1
648,806,47,0.145000887504641,1
648,807,47,0.124893466467823,1
648,825,47,0.127908132246482,1
648,826,47,0.12149719489178,1
649,805,47,0.129055705425338,1
649,806,47,0.135046667952386,1
649,807,47,0.130973367888857,1
649,808,47,0.12536150268668,1
649,809,47,0.117571011441555,1
649,825,47,0.126442136157721,1
650,807,47,0.121524081477448,1
650,808,47,0.128376839746716,1
650,809,47,0.151229177440536,1
650,810,47,0.160902118319066,1
650,811,47,0.124091438321866,1
651,809,47,0.155878837338771,1
651,810,47,0.199328643251304,1
651,811,47,0.184266078413767,1
651,812,47,0.150683084152116,1
651,813,47,0.153496035765495,1
651,814,47,0.141608031219813,1
652,810,47,0.166413526852056,1
652,811,47,0.172669633746054,1
652,812,47,0.182114633378145,1
652,813,47,0.226235555791302,1
652,814,47,0.239153953696565,1
652,815,47,0.192350414248915,1
652,816,47,0.124884362950205,1
653,811,47,0.120122375301594,1
653,812,47,0.142407303579065,1
653,813,47,0.182239150185099,1
653,814,47,0.207602103781702,1
653,815,47,0.20025284460783,1
653,816,47,0.166976885026412,1
653,817,47,0.15452918491178,1
653,818,47,0.13844879263096,1
653,819,47,0.114041343301399,1
654,814,47,0.148460707051017,1
654,815,47,0.14013715950842,1
654,816,47,0.142598029928126,1
618,811,48,0.119732820119485,1
619,808,48,0.129596687553803,1
619,811,48,0.11853440620899,1
619,824,48,0.123942402079361,1
620,807,48,0.142984476017542,1
620,824,48,0.204752455453061,1
620,825,48,0.130011716097629,1
621,822,48,0.167702987715598,1
621,824,48,0.20420598530492,1
621,825,48,0.124634163426537,1
622,823,48,0.127231433511252,1
622,824,48,0.118857810733323,1
622,831,48,0.152010831607865,1
622,832,48,0.166652043724395,1
622,833,48,0.136592275657057,1
623,831,48,0.135785501433998,1
623,832,48,0.133214423099843,1
625,825,48,0.147329079749075,1
625,826,48,0.123793283398792,1
627,799,48,0.156507097823079,1
628,798,48,0.163920352488202,1
628,799,48,0.152847648616751,1
629,798,48,0.118150692352546,1
629,841,48,0.114141270011604,1
630,841,48,0.122282299680922,1
639,800,48,0.12220036802236,1
639,801,48,0.142542537334315,1
639,802,48,0.14122362252826,1
639,839,48,0.117060272305644,1
640,800,48,0.130111572146637,1
640,801,48,0.141618182878528,1
640,802,48,0.132335786438873,1
640,838,48,0.119603121491377,1
641,800,48,0.119216063004915,1
641,801,48,0.130007464648909,1
641,802,48,0.128630489892198,1
642,801,48,0.115693225447189,1
642,802,48,0.128543859263999,1
642,836,48,0.118036492080434,1
643,834,48,0.12935500270444,1
643,835,48,0.156182739372579,1
644,833,48,0.135362346852453,1
644,834,48,0.172306164322709,1
645,830,48,0.119677987030184,1
645,831,48,0.160318468604146,1
645,832,48,0.166138489917448,1
646,830,48,0.14747034325985,1
646,831,48,0.188240405693257,1
647,804,48,0.130539731896342,1
647,805,48,0.135552036837284,1
647,806,48,0.114551846899985,1
647,830,48,0.129631252656272,1
648,804,48,0.1370722889489,1
648,805,48,0.160932632179543,1
648,806,48,0.141150853271646,1
648,807,48,0.124520905303726,1
649,805,48,0.146007114734659,1
649,806,48,0.153223048005616,1
649,807,48,0.150120303044207,1
649,808,48,0.14161754692775,1
649,809,48,0.120745877931933,1
650,807,48,0.139241128415986,1
650,808,48,0.145571040930828,1
650,809,48,0.149619103169965,1
650,810,48,0.130451746928523,1
651,808,48,0.136608280418303,1
651,809,48,0.177676709758377,1
651,810,48,0.175820557867328,1
651,811,48,0.138763694257854,1
651,812,48,0.121155194695624,1
651,813,48,0.141325398206468,1
651,814,48,0.141416327390852,1
652,810,48,0.169216220814923,1
652,811,48,0.140542919658501,1
652,812,48,0.139427874184252,1
652,813,48,0.186301391771211,1
652,814,48,0.218659403512088,1
652,815,48,0.183098979190654,1
652,816,48,0.113762137356135,1
653,813,48,0.137688866781879,1
653,814,48,0.175902889939343,1
653,815,48,0.179637204684479,1
653,816,48,0.145021803219117,1
653,817,48,0.144547242616352,1
653,818,48,0.14695465784011,1
653,819,48,0.131159041962293,1
654,814,48,0.115649533273369,1
654,815,48,0.116406668005147,1
654,817,48,0.161032441121086,1
654,818,48,0.195492776588419,1
617,819,49,0.119004220734652,1
619,808,49,0.125298237361138,1
619,824,49,0.117501622145558,1
620,806,49,0.125572414584509,1
620,807,49,0.128746056280796,1
620,823,49,0.184996208791214,1
620,824,49,0.166538491179928,1
620,825,49,0.114005094107054,1
621,822,49,0.134633570814627,1
621,823,49,0.156489974259539,1
621,824,49,0.150195686765129,1
621,831,49,0.126067561149494,1
621,832,49,0.153527421114075,1
621,833,49,0.13098204743929,1
622,831,49,0.14573019350145,1
622,832,49,0.169725617388081,1
622,833,49,0.132524781588594,1
623,831,49,0.114364147205552,1
623,832,49,0.117407619199081,1
627,799,49,0.131453192750839,1
628,799,49,0.134170198234808,1
630,842,49,0.119209750604601,1
632,842,49,0.128590107017797,1
633,842,49,0.124833251350642,1
635,802,49,0.114429873896143,1
635,803,49,0.127628949854951,1
636,803,49,0.129528523051897,1
637,841,49,0.138067669685093,1
639,800,49,0.121867848203543,1
639,801,49,0.127977874848467,1
639,802,49,0.121469448594874,1
639,839,49,0.114548090079648,1
639,840,49,0.13403848576257,1
640,799,49,0.114195172728471,1
640,800,49,0.127400313773403,1
640,801,49,0.131895378748259,1
640,802,49,0.122746155112258,1
640,838,49,0.117011410087536,1
640,839,49,0.152740326034534,1
641,800,49,0.115939032199742,1
641,801,49,0.125938545579629,1
641,802,49,0.131662985846374,1
641,838,49,0.144547442823079,1
642,801,49,0.116227282778293,1
642,802,49,0.136792246846132,1
642,803,49,0.118298091610641,1
642,836,49,0.121748265903551,1
642,837,49,0.144648535443044,1
643,802,49,0.116541772214868,1
643,834,49,0.124052044704231,1
643,835,49,0.160809658142068,1
643,836,49,0.191038118041697,1
644,832,49,0.127453863184282,1
644,833,49,0.14335287994785,1
644,834,49,0.168118110474354,1
644,835,49,0.21963634167572,1
645,831,49,0.154989118646652,1
645,832,49,0.177535775999858,1
645,833,49,0.178276010928555,1
646,830,49,0.123712694302983,1
646,831,49,0.171086646267878,1
646,832,49,0.190793335876508,1
647,805,49,0.11785738949837,1
648,805,49,0.158174725639058,1
648,806,49,0.143542711255076,1
648,807,49,0.132002913314068,1
648,808,49,0.118095635502786,1
649,806,49,0.163834440248844,1
649,807,49,0.169753351908121,1
649,808,49,0.160381463061765,1
649,809,49,0.129390121319623,1
650,807,49,0.154596336603188,1
650,808,49,0.169404862658657,1
650,809,49,0.161399655587902,1
650,810,49,0.117256781096038,1
651,809,49,0.201580686278509,1
651,810,49,0.161780578327042,1
651,813,49,0.126595965584793,1
651,814,49,0.131178850651341,1
652,813,49,0.149680743287964,1
652,814,49,0.183600979891802,1
652,815,49,0.152420124817824,1
653,814,49,0.143262080308995,1
653,815,49,0.143031677697508,1
653,816,49,0.116403535358722,1
653,817,49,0.122335849091801,1
653,818,49,0.137019646356723,1
653,819,49,0.13266424323883,1
654,817,49,0.138597911311529,1
654,818,49,0.184926077552643,1
654,819,49,0.191761123415058,1
655,818,49,0.120526957765049,1
618,819,50,0.116599278652809,1
618,823,50,0.127128539030749,1
619,807,50,0.148474168009151,1
620,820,50,0.116195567677458,1
620,823,50,0.142743627325684,1
620,824,50,0.117778826023558,1
620,832,50,0.115975705361272,1
621,831,50,0.121856259767144,1
621,832,50,0.145931978327928,1
621,833,50,0.123081795800633,1
622,831,50,0.118622815143995,1
622,832,50,0.139945031712274,1
628,842,50,0.116438571535842,1
629,842,50,0.123263913260459,1
631,843,50,0.133202575572386,1
632,842,50,0.124104569527745,1
632,843,50,0.17311604763846,1
633,842,50,0.13207483463631,1
633,843,50,0.202372374335891,1
635,802,50,0.132831639615833,1
635,803,50,0.157026127872837,1
636,802,50,0.113972448633785,1
636,803,50,0.136242479175438,1
637,841,50,0.119437774289104,1
637,842,50,0.161808760368,1
638,841,50,0.174774866358477,1
639,840,50,0.12027291898298,1
640,839,50,0.142162297653417,1
640,840,50,0.143707186969246,1
641,802,50,0.120065398822634,1
641,838,50,0.124817717664046,1
641,839,50,0.177032774265079,1
642,802,50,0.12860262582663,1
642,836,50,0.144492079774796,1
642,837,50,0.156943607370962,1
642,838,50,0.172593460975092,1
643,834,50,0.11969109468233,1
643,835,50,0.166628219123954,1
643,836,50,0.230756011689812,1
643,837,50,0.243909805597855,1
644,832,50,0.133287227687055,1
644,833,50,0.145475848520859,1
644,834,50,0.156395606230207,1
644,835,50,0.192926079248512,1
645,831,50,0.13816671313033,1
645,832,50,0.177324640341571,1
645,833,50,0.18630633805504,1
645,834,50,0.186027037894847,1
646,831,50,0.143486936016474,1
646,832,50,0.181032233377165,1
647,831,50,0.115779808967923,1
648,806,50,0.137345936213289,1
648,807,50,0.128755536658134,1
648,808,50,0.116264650774932,1
649,807,50,0.172889178086851,1
649,808,50,0.166182229198733,1
649,809,50,0.130409538639851,1
650,808,50,0.192921038749753,1
650,809,50,0.171084549985684,1
651,809,50,0.202191316794028,1
652,813,50,0.116573263555244,1
652,814,50,0.138206460053953,1
652,815,50,0.114123698927146,1
653,818,50,0.115721525256809,1
653,819,50,0.117702323500341,1
654,818,50,0.149009014390294,1
654,819,50,0.163031670160313,1
617,820,51,0.141739001749477,1
617,822,51,0.142799119919495,1
618,819,51,0.137646552501411,1
618,820,51,0.180899531648161,1
618,822,51,0.185894736579295,1
618,823,51,0.116891686465149,1
619,819,51,0.140037538996737,1
619,820,51,0.203190678111017,1
619,823,51,0.133072170332303,1
620,820,51,0.120702503733502,1
620,821,51,0.146347949021055,1
620,822,51,0.141457864398147,1
620,823,51,0.114844290042923,1
621,832,51,0.121147504401957,1
629,842,51,0.120206273696821,1
630,843,51,0.184117501469046,1
631,843,51,0.135488971718468,1
631,844,51,0.157242150930622,1
632,842,51,0.119093901571213,1
632,843,51,0.160400518031372,1
632,844,51,0.140379091671975,1
633,842,51,0.153636310019503,1
633,843,51,0.209848376144441,1
633,844,51,0.163291750474773,1
634,802,51,0.116503803598049,1
634,803,51,0.134214738342999,1
634,842,51,0.144373910698755,1
634,843,51,0.195322706862776,1
635,802,51,0.14058453910386,1
635,803,51,0.175726342937258,1
635,804,51,0.123576706828293,1
635,843,51,0.135906803156464,1
636,803,51,0.129866601551588,1
637,842,51,0.147000858486443,1
637,843,51,0.183000135952144,1
638,841,51,0.143461391993559,1
638,842,51,0.238734508827892,1
639,841,51,0.144738781569185,1
640,839,51,0.128057910431562,1
640,840,51,0.142209146027395,1
641,802,51,0.115374178363372,1
641,839,51,0.154834146863552,1
642,802,51,0.120427525683225,1
642,836,51,0.155479106944215,1
642,837,51,0.159398754233666,1
642,838,51,0.173242825603736,1
643,834,51,0.116170742043384,1
643,835,51,0.164893156971778,1
643,836,51,0.239711658975117,1
643,837,51,0.260847742172176,1
643,838,51,0.278884271938582,1
644,832,51,0.133631265281073,1
644,833,51,0.147171305071806,1
644,834,51,0.14691710141361,1
644,835,51,0.157923583966089,1
644,836,51,0.197880418453728,1
644,838,51,0.252612532903387,1
645,831,51,0.123768834624439,1
645,832,51,0.173161035267569,1
645,833,51,0.192420321727027,1
645,834,51,0.18475723262109,1
646,831,51,0.117727160911281,1
646,832,51,0.163272189099917,1
646,833,51,0.202802088631942,1
647,832,51,0.125030078116425,1
648,806,51,0.124414383548415,1
648,807,51,0.118796865450434,1
649,807,51,0.160693043612374,1
649,808,51,0.160417688702377,1
649,809,51,0.126925352757186,1
650,809,51,0.177735240783684,1
617,816,52,0.124359939095701,1
617,817,52,0.129183719961572,1
617,818,52,0.116530254439667,1
617,819,52,0.11488261196573,1
617,820,52,0.123455605312554,1
617,822,52,0.117187097378385,1
618,816,52,0.133008363270912,1
618,817,52,0.130029169413424,1
618,818,52,0.128546968356691,1
618,819,52,0.154596371933787,1
618,820,52,0.165608307175343,1
618,821,52,0.157351558018166,1
618,822,52,0.142524942696124,1
619,819,52,0.157224556292431,1
619,820,52,0.193634281100984,1
619,821,52,0.187904317483964,1
619,822,52,0.161078841974146,1
620,821,52,0.115855769755293,1
627,843,52,0.132671992416829,1
628,843,52,0.151994296887638,1
629,843,52,0.197435264686011,1
630,843,52,0.182014153155225,1
630,844,52,0.21281541627595,1
631,843,52,0.134845330646826,1
631,844,52,0.157113076476426,1
632,843,52,0.132076777819243,1
632,844,52,0.131224226917036,1
633,842,52,0.150132774745575,1
633,843,52,0.176491297508232,1
633,844,52,0.141549405979577,1
634,803,52,0.142307741951713,1
634,842,52,0.153057276836157,1
634,843,52,0.181015027375561,1
634,844,52,0.138334415705855,1
635,802,52,0.127853711347501,1
635,803,52,0.165106412465992,1
635,804,52,0.114473177433376,1
635,843,52,0.117058164246583,1
637,842,52,0.123307322789489,1
637,843,52,0.145513569823486,1
638,842,52,0.178973001204349,1
638,843,52,0.219820013681892,1
639,799,52,0.115565870415466,1
639,841,52,0.129028559748612,1
639,842,52,0.170701719394209,1
640,840,52,0.130952346182585,1
640,841,52,0.137180094382633,1
641,839,52,0.125530536048093,1
641,840,52,0.162776595014014,1
642,836,52,0.145856017540559,1
642,837,52,0.146938264442277,1
642,838,52,0.163663487258232,1
642,839,52,0.179826941776775,1
643,835,52,0.150337480234885,1
643,836,52,0.216623725071789,1
643,837,52,0.247868387207158,1
643,838,52,0.297707779015867,1
643,839,52,0.263821683547313,1
644,832,52,0.117164744886226,1
644,833,52,0.132018199686472,1
644,834,52,0.12980936598157,1
644,835,52,0.130595778002868,1
644,836,52,0.166619739780247,1
644,837,52,0.219843967827863,1
644,838,52,0.289103176560004,1
644,839,52,0.24657022323945,1
645,832,52,0.15290415402106,1
645,833,52,0.175173313074611,1
645,834,52,0.166434277690404,1
645,838,52,0.184823018196012,1
646,832,52,0.135749216909055,1
646,833,52,0.17516919117142,1
647,833,52,0.142716611194486,1
615,820,53,0.166161231046194,1
615,822,53,0.129182471613748,1
615,823,53,0.115688208502163,1
615,824,53,0.124035910397456,1
616,816,53,0.121292866262189,1
616,817,53,0.121313028257224,1
616,819,53,0.120388520702176,1
616,820,53,0.150166574351738,1
616,822,53,0.124964092334777,1
617,815,53,0.134576347021475,1
617,816,53,0.173154322453801,1
617,817,53,0.159060522634713,1
617,818,53,0.13300305190423,1
617,819,53,0.130644840427702,1
617,820,53,0.127666871364305,1
617,821,53,0.120927123903656,1
618,815,53,0.141321064319685,1
618,816,53,0.163873727874684,1
618,817,53,0.147312580359447,1
618,818,53,0.142066009994885,1
618,819,53,0.16344408423983,1
618,820,53,0.154177669007688,1
618,821,53,0.12790118389539,1
619,819,53,0.155270679965167,1
619,820,53,0.16255216327372,1
619,821,53,0.136649593665139,1
619,822,53,0.114461023707397,1
619,835,53,0.130959530071003,1
620,834,53,0.121438498990346,1
620,835,53,0.125406560976986,1
628,843,53,0.123852780127132,1
628,844,53,0.14801423427428,1
629,843,53,0.155445248453721,1
629,844,53,0.171776075795534,1
630,803,53,0.129726963248357,1
630,804,53,0.119370233961109,1
630,843,53,0.159195485522039,1
630,844,53,0.175532943239556,1
631,803,53,0.124119302387435,1
631,804,53,0.114757682968456,1
631,843,53,0.1309740509471,1
631,844,53,0.150272059742818,1
631,845,53,0.117834518824096,1
632,843,53,0.115832180692176,1
632,844,53,0.127111639227667,1
633,842,53,0.140359353644125,1
633,843,53,0.144211437051849,1
633,844,53,0.122839463223626,1
634,803,53,0.132430919964511,1
634,842,53,0.144905518441678,1
634,843,53,0.150786414376671,1
634,844,53,0.116764837838676,1
635,803,53,0.136148052261775,1
637,843,53,0.115908188587011,1
638,842,53,0.130970941854408,1
638,843,53,0.154861339647744,1
639,841,53,0.117191501926366,1
639,842,53,0.142032116173792,1
640,840,53,0.118718125322627,1
640,841,53,0.13602249909059,1
641,840,53,0.137577799156192,1
642,836,53,0.119308805826704,1
642,837,53,0.128565516921049,1
642,838,53,0.148060482028078,1
642,839,53,0.158386544355588,1
643,835,53,0.128355794486712,1
643,836,53,0.172403429461141,1
643,837,53,0.212647619485494,1
643,838,53,0.273066994635119,1
643,839,53,0.244410887703435,1
644,833,53,0.116719838432701,1
644,834,53,0.117941841406312,1
644,835,53,0.118967229597733,1
644,836,53,0.146728883537062,1
644,837,53,0.218566672467166,1
644,838,53,0.320637808696396,1
644,839,53,0.274070077441846,1
644,840,53,0.17397564110669,1
645,832,53,0.134036625017701,1
645,833,53,0.15513276108441,1
645,834,53,0.146777286457386,1
645,835,53,0.121550131905613,1
645,838,53,0.257727555671838,1
645,839,53,0.223543222842146,1
646,832,53,0.121914378602131,1
646,833,53,0.153495788451303,1
646,834,53,0.159233018394806,1
647,833,53,0.134474194483546,1
651,815,53,0.116387907457197,1
654,823,53,0.113943854402508,1
614,822,54,0.11436324038685,1
615,820,54,0.128903936949861,1
615,821,54,0.131031463170112,1
615,822,54,0.120832791204923,1
616,815,54,0.132291493644873,1
616,816,54,0.171647766837645,1
616,817,54,0.14505752245448,1
616,818,54,0.126315534845439,1
616,819,54,0.13012572793988,1
616,820,54,0.138653345021009,1
616,821,54,0.138638588607587,1
616,822,54,0.120328741329047,1
617,815,54,0.162520059536299,1
617,816,54,0.214287618773229,1
617,817,54,0.180696604465656,1
617,818,54,0.153614711246785,1
617,819,54,0.151304078309942,1
617,820,54,0.143376692771425,1
617,821,54,0.129045624427821,1
618,815,54,0.154050914596144,1
618,816,54,0.171462858260515,1
618,817,54,0.150139440451877,1
618,818,54,0.149980546972314,1
618,819,54,0.162514300648698,1
618,820,54,0.142583768143087,1
619,819,54,0.13640827389863,1
619,820,54,0.122856174596847,1
619,834,54,0.116391252087214,1
619,835,54,0.148526633948334,1
619,836,54,0.123840002227241,1
620,834,54,0.121688769175211,1
620,835,54,0.129481297818199,1
621,834,54,0.115141915007016,1
623,805,54,0.12672060016041,1
623,806,54,0.129398906861852,1
624,805,54,0.140541447550219,1
624,806,54,0.128007976518625,1
625,843,54,0.115701481030436,1
626,844,54,0.120486928196635,1
627,844,54,0.115914818962714,1
628,845,54,0.130087252917813,1
629,844,54,0.121415675423536,1
629,845,54,0.139469375860948,1
630,802,54,0.119329109144134,1
630,803,54,0.154092286727312,1
630,804,54,0.134073675038951,1
630,843,54,0.115322218829438,1
630,844,54,0.127416082997324,1
630,845,54,0.120412910592198,1
631,803,54,0.137181766697641,1
631,804,54,0.122654790183822,1
631,844,54,0.125783173383076,1
632,844,54,0.11712333742446,1
640,841,54,0.123304307911727,1
640,842,54,0.123367749890263,1
641,840,54,0.114948927499633,1
641,841,54,0.13311990197125,1
642,838,54,0.119470867283291,1
642,839,54,0.131935726292061,1
642,840,54,0.141231230383863,1
643,836,54,0.119460538971582,1
643,837,54,0.157113924410796,1
643,838,54,0.209078145537383,1
644,836,54,0.120182025129195,1
644,837,54,0.187502914774399,1
644,838,54,0.289287154764699,1
644,839,54,0.264360993360768,1
645,833,54,0.122071917742075,1
645,834,54,0.115347645083691,1
645,837,54,0.180993098850587,1
645,838,54,0.284695543040254,1
645,839,54,0.248343254008445,1
646,833,54,0.12476072940822,1
646,834,54,0.124199173094402,1
646,835,54,0.114597588248534,1
646,838,54,0.191738747369166,1
647,833,54,0.119008813712493,1
647,834,54,0.131981667847337,1
648,833,54,0.123112804289493,1
650,813,54,0.115623011770554,1
650,814,54,0.132832004698687,1
650,815,54,0.13180141113238,1
651,814,54,0.138398446527704,1
651,815,54,0.151644700612746,1
651,816,54,0.114746577383574,1
652,815,54,0.114869975388234,1
614,822,55,0.119206394197717,1
615,816,55,0.119906587781134,1
616,815,55,0.157183761227711,1
616,816,55,0.208137009047177,1
616,817,55,0.166732479720943,1
616,818,55,0.142845132135968,1
616,819,55,0.12931070991044,1
616,820,55,0.12066127292473,1
616,821,55,0.119166788596489,1
617,815,55,0.168237351245225,1
617,816,55,0.220742354293549,1
617,817,55,0.189428762159968,1
617,818,55,0.174517164971002,1
617,819,55,0.166722021863705,1
617,820,55,0.15014339747894,1
617,821,55,0.128987858898822,1
618,815,55,0.145002524489051,1
618,816,55,0.157561221568172,1
618,817,55,0.148557819090187,1
618,818,55,0.160011740122436,1
618,819,55,0.165635193761012,1
618,820,55,0.139787928316382,1
618,835,55,0.114162762792527,1
618,836,55,0.115049148631495,1
619,819,55,0.121228352588824,1
619,834,55,0.121470355413576,1
619,835,55,0.154501120639486,1
619,836,55,0.130466067597893,1
620,834,55,0.121237314784047,1
620,835,55,0.128926053904695,1
622,806,55,0.114745011060362,1
622,807,55,0.116644654918505,1
622,840,55,0.118199177710933,1
622,841,55,0.133452527781863,1
623,805,55,0.137619771907539,1
623,806,55,0.131838661360356,1
623,841,55,0.121663072053035,1
623,842,55,0.114658250886633,1
624,805,55,0.151949945209307,1
624,806,55,0.133207415864419,1
624,843,55,0.138443233950086,1
625,843,55,0.118707290605669,1
625,844,55,0.134543866424333,1
628,845,55,0.116293704303992,1
629,845,55,0.130487018642968,1
630,802,55,0.144429191308974,1
630,803,55,0.174135676942281,1
630,804,55,0.137585948747643,1
630,846,55,0.124216732401994,1
631,802,55,0.125132171770022,1
631,803,55,0.149950775054411,1
631,804,55,0.123002455052648,1
640,842,55,0.12167743982987,1
640,843,55,0.120363129778522,1
641,841,55,0.134907123864086,1
641,842,55,0.14764646629475,1
642,839,55,0.114085859855857,1
642,840,55,0.132924170454028,1
643,838,55,0.14688870738906,1
643,839,55,0.169637067130681,1
644,837,55,0.147257759047012,1
644,838,55,0.226522887774284,1
645,837,55,0.166161019062601,1
645,838,55,0.261177800625945,1
648,833,55,0.122795005553499,1
648,834,55,0.135606069099679,1
649,814,55,0.119726707925897,1
649,833,55,0.14145508505771,1
650,813,55,0.123602180190011,1
650,814,55,0.154082040853666,1
650,815,55,0.158451270012547,1
650,816,55,0.124794752774842,1
650,832,55,0.120251402648325,1
651,814,55,0.153769365054495,1
651,815,55,0.173010303156323,1
651,816,55,0.134717963838237,1
652,815,55,0.127507082842905,1
614,822,56,0.114958454984436,1
615,816,56,0.128272096298211,1
615,817,56,0.125157868892199,1
615,818,56,0.116690537589449,1
616,815,56,0.15569774446631,1
616,816,56,0.211169646323748,1
616,817,56,0.181170340687782,1
616,818,56,0.151495888130699,1
616,819,56,0.119410852372836,1
617,815,56,0.14996160977137,1
617,816,56,0.191930133222738,1
617,817,56,0.179996034022519,1
617,818,56,0.176822156788906,1
617,819,56,0.161643896017243,1
617,820,56,0.136285770935806,1
618,815,56,0.121560636870316,1
618,816,56,0.131497391329909,1
618,817,56,0.139054323763389,1
618,818,56,0.159445590830777,1
618,819,56,0.158397626386738,1
618,820,56,0.125655512152831,1
618,837,56,0.12659260917791,1
618,838,56,0.153701188775723,1
619,834,56,0.117901788284166,1
619,835,56,0.14034690549649,1
619,836,56,0.130059176868652,1
620,834,56,0.115094371797929,1
620,835,56,0.122714993524137,1
621,841,56,0.128592038423863,1
622,840,56,0.126134818832698,1
622,841,56,0.147244050774687,1
622,842,56,0.130788259105001,1
623,805,56,0.129056565136575,1
623,806,56,0.125688393163426,1
623,841,56,0.129648387996679,1
623,842,56,0.122693865826069,1
623,843,56,0.142437581902216,1
624,805,56,0.139016060724914,1
624,806,56,0.123081466048378,1
624,843,56,0.136847551010083,1
625,844,56,0.126803791943662,1
625,845,56,0.12292702422426,1
628,846,56,0.13164943067331,1
629,803,56,0.120898364796252,1
629,846,56,0.157177401719931,1
630,802,56,0.158806660505638,1
630,803,56,0.180934108527497,1
630,804,56,0.129896809213542,1
630,846,56,0.120956683837966,1
630,847,56,0.157735919602255,1
631,802,56,0.13193009694999,1
631,803,56,0.153557993858882,1
631,804,56,0.115671296922215,1
640,842,56,0.116255570811046,1
640,843,56,0.125438582276344,1
641,841,56,0.129331083889068,1
641,842,56,0.158617547587255,1
642,840,56,0.11863432114233,1
642,841,56,0.14296106360742,1
643,839,56,0.144890208515541,1
643,840,56,0.161446810160402,1
644,838,56,0.167260083329337,1
644,839,56,0.207258266394411,1
645,837,56,0.134314241086019,1
645,838,56,0.199744578613833,1
646,837,56,0.130141862246655,1
647,836,56,0.118833043983581,1
648,833,56,0.119708018039144,1
648,834,56,0.132878699973403,1
648,835,56,0.129373504161332,1
649,813,56,0.116435297567022,1
649,814,56,0.138918560049158,1
649,815,56,0.12176580165741,1
649,833,56,0.156543099703232,1
649,834,56,0.158968663077894,1
650,813,56,0.125741235962329,1
650,814,56,0.164663767170789,1
650,815,56,0.171875001472108,1
650,816,56,0.14266972748991,1
650,817,56,0.115334384332283,1
650,832,56,0.131994999259942,1
650,833,56,0.154109233637858,1
651,815,56,0.173483792064258,1
651,816,56,0.153321832359795,1
651,817,56,0.136517527886913,1
651,831,56,0.1270125368981,1
651,832,56,0.136815517933859,1
652,815,56,0.124052398010218,1
652,816,56,0.122275056908173,1
652,817,56,0.12524581852942,1
653,828,56,0.120720322132152,1
615,816,57,0.12328043620382,1
615,817,57,0.135251491210359,1
615,818,57,0.119823914179997,1
616,815,57,0.130356566295419,1
616,816,57,0.182982011354972,1
616,817,57,0.183989804908202,1
616,818,57,0.152025764674282,1
616,819,57,0.116733181622172,1
617,815,57,0.120132738943902,1
617,816,57,0.151398199025083,1
617,817,57,0.162656258994582,1
617,818,57,0.163452963996989,1
617,819,57,0.148624511483811,1
617,820,57,0.122257132517727,1
617,837,57,0.141551549369236,1
617,838,57,0.225860863014412,1
618,817,57,0.120326798146114,1
618,818,57,0.141823971839534,1
618,819,57,0.138851537903279,1
618,837,57,0.120973689632843,1
618,838,57,0.160512704459353,1
618,839,57,0.164159870394174,1
619,836,57,0.118860142552842,1
621,840,57,0.116247892294246,1
621,841,57,0.136753418518076,1
622,840,57,0.135174788480416,1
623,840,57,0.113848037818627,1
623,841,57,0.137394445125409,1
623,842,57,0.138652190888116,1
629,802,57,0.118144803919416,1
629,803,57,0.123740994112603,1
630,802,57,0.153596457104084,1
630,803,57,0.168400295966781,1
630,804,57,0.116144467854761,1
630,846,57,0.11426855438213,1
631,802,57,0.12159266994654,1
631,803,57,0.140886874814455,1
640,842,57,0.114236580190237,1
640,843,57,0.131707490623966,1
640,844,57,0.125610536300589,1
641,841,57,0.126037577247999,1
641,842,57,0.170161785406842,1
641,843,57,0.1660522950333,1
642,841,57,0.138556821825152,1
642,842,57,0.161817734340089,1
643,839,57,0.127865288007033,1
643,840,57,0.158090980343091,1
643,841,57,0.163050312939601,1
644,838,57,0.126141213671076,1
644,839,57,0.187059951503807,1
644,840,57,0.225627610401291,1
645,838,57,0.148326026808482,1
645,839,57,0.197551926323171,1
646,838,57,0.14112342495013,1
647,836,57,0.11773056442563,1
647,837,57,0.139728054728322,1
648,814,57,0.117004826819297,1
648,834,57,0.129518818914099,1
648,835,57,0.129095723216886,1
648,836,57,0.15358183023619,1
649,813,57,0.129028076897095,1
649,814,57,0.15201812148808,1
649,815,57,0.136523439873775,1
649,832,57,0.114410559835478,1
649,833,57,0.167723420578557,1
649,834,57,0.175972691425659,1
649,835,57,0.147805889733295,1
650,815,57,0.174749828740811,1
650,816,57,0.150073548885159,1
650,817,57,0.137042411039201,1
650,832,57,0.147688179955039,1
650,833,57,0.175646625329552,1
650,834,57,0.159229885748381,1
651,816,57,0.163478402028108,1
651,817,57,0.176683189767053,1
651,818,57,0.134735358269701,1
651,831,57,0.143612618733188,1
651,832,57,0.149026479482956,1
652,817,57,0.163840446450636,1
652,818,57,0.130509477126923,1
652,830,57,0.128469829882696,1
652,831,57,0.142658233268441,1
653,828,57,0.114263855412492,1
615,817,58,0.127917012003642,1
616,816,58,0.145966920290118,1
616,817,58,0.172517229319799,1
616,818,58,0.147568055919199,1
616,819,58,0.116578327607735,1
616,838,58,0.151471827992933,1
617,816,58,0.120783116383044,1
617,817,58,0.146996607037723,1
617,818,58,0.150189456802879,1
617,819,58,0.136772826793671,1
617,837,58,0.118815390461059,1
617,838,58,0.201998034864989,1
617,839,58,0.23860201908248,1
618,818,58,0.117978549898441,1
618,838,58,0.153779893572931,1
618,839,58,0.172468897060673,1
618,840,58,0.128946474990788,1
621,840,58,0.116356157025763,1
627,846,58,0.119936618790094,1
629,802,58,0.114410053430229,1
629,846,58,0.11923921632398,1
630,802,58,0.126737393971695,1
630,803,58,0.131493245872986,1
630,847,58,0.153058218985458,1
640,843,58,0.125974523906049,1
640,844,58,0.12039225396878,1
641,842,58,0.162206264934833,1
641,843,58,0.161122840346489,1
642,841,58,0.125780547141901,1
642,842,58,0.159362599254251,1
643,840,58,0.13933649747895,1
643,841,58,0.152609755918323,1
644,839,58,0.157256130070871,1
644,840,58,0.224885526504591,1
645,839,58,0.18148888136635,1
647,836,58,0.11434841331223,1
647,837,58,0.139698965868663,1
648,815,58,0.114821160277591,1
648,834,58,0.117429759707647,1
648,835,58,0.128493984235393,1
648,836,58,0.159762317871941,1
649,815,58,0.13644579499453,1
649,816,58,0.119988566547161,1
649,832,58,0.114088910064218,1
649,833,58,0.164061392238518,1
649,834,58,0.180256196775042,1
649,835,58,0.161015058466488,1
650,816,58,0.140432064016407,1
650,817,58,0.14351169098935,1
650,818,58,0.116005877692627,1
650,831,58,0.117481931225174,1
650,832,58,0.159235055792668,1
650,833,58,0.184705061103564,1
650,834,58,0.168597888228871,1
651,817,58,0.190893356801644,1
651,818,58,0.156905532762347,1
651,831,58,0.153019520202931,1
651,832,58,0.151480719526958,1
651,833,58,0.130562567240018,1
652,818,58,0.148953910433069,1
652,830,58,0.141810805303057,1
652,831,58,0.15074407654247,1
616,817,59,0.140439624764545,1
616,818,59,0.137093687514892,1
616,819,59,0.117625573662932,1
616,838,59,0.132182227879724,1
617,817,59,0.126434610740182,1
617,818,59,0.138835285827842,1
617,819,59,0.128563102663465,1
617,838,59,0.16242492601066,1
617,839,59,0.209068347184655,1
618,838,59,0.135515905411602,1
618,839,59,0.156358014473109,1
618,840,59,0.129218932791685,1
628,846,59,0.121189924674221,1
630,847,59,0.139397042348386,1
641,842,59,0.13670404989472,1
641,843,59,0.144235932933667,1
641,844,59,0.124476141435076,1
642,841,59,0.114999897776801,1
642,842,59,0.157289234841925,1
642,843,59,0.171346326168885,1
643,840,59,0.121139684562761,1
643,841,59,0.14417762566882,1
643,842,59,0.177035341621923,1
644,839,59,0.132183617549943,1
644,840,59,0.20307441688731,1
644,841,59,0.203946211188984,1
645,839,59,0.168376106283486,1
645,840,59,0.247117894627949,1
646,838,59,0.11620531892272,1
646,839,59,0.14848940727409,1
647,837,59,0.138424567617066,1
648,815,59,0.121259325747084,1
648,816,59,0.12068629876553,1
648,835,59,0.130722638406207,1
648,836,59,0.160630720436132,1
649,815,59,0.126003589211976,1
649,816,59,0.12508401616389,1
649,817,59,0.117742859474004,1
649,833,59,0.147785715961394,1
649,834,59,0.170720550603357,1
649,835,59,0.172285225054501,1
650,817,59,0.133222242939039,1
650,818,59,0.116063702105958,1
650,831,59,0.126872156652295,1
650,832,59,0.160513411071328,1
650,833,59,0.176665418475868,1
650,834,59,0.165961978245961,1
651,818,59,0.16013559742488,1
651,819,59,0.115699726277364,1
651,830,59,0.11801802595414,1
651,831,59,0.155025179411136,1
651,832,59,0.147127860212178,1
651,833,59,0.127300104418407,1
652,819,59,0.127678813106691,1
652,830,59,0.1455535640613,1
652,831,59,0.151907548490776,1
616,818,60,0.116904523249371,1
616,839,60,0.156727843404234,1
617,818,60,0.120697722325801,1
617,819,60,0.118224533303989,1
617,838,60,0.12388672105569,1
617,839,60,0.159720156690734,1
617,840,60,0.143997639821787,1
618,839,60,0.126092386783567,1
618,840,60,0.119249791949881,1
618,841,60,0.127303001527507,1
619,841,60,0.116196038752108,1
628,846,60,0.114222294851465,1
629,847,60,0.13887161746025,1
630,847,60,0.128410215385694,1
630,848,60,0.154893184294107,1
631,847,60,0.122032029496057,1
631,848,60,0.12150402547421,1
641,843,60,0.116779134954314,1
641,844,60,0.117059989660854,1
642,842,60,0.144355703663519,1
642,843,60,0.170560550098365,1
643,841,60,0.130085050643822,1
643,842,60,0.178684668187735,1
644,840,60,0.162743160490705,1
644,841,60,0.180711525755206,1
645,839,60,0.140158934934133,1
645,840,60,0.211065703702147,1
647,837,60,0.129017536601794,1
648,815,60,0.115259200818087,1
648,816,60,0.129662461351858,1
648,817,60,0.115238544194669,1
648,835,60,0.133128899497071,1
648,836,60,0.155319294869083,1
649,816,60,0.117170986625343,1
649,817,60,0.117317337742341,1
649,833,60,0.129936438368503,1
649,834,60,0.157120437017837,1
649,835,60,0.179378302056646,1
650,831,60,0.128421438739238,1
650,832,60,0.150139381567546,1
650,833,60,0.157493975661834,1
651,818,60,0.143542122411763,1
651,819,60,0.122900396729649,1
651,830,60,0.121559211869498,1
651,831,60,0.153356279693602,1
651,832,60,0.142439042233632,1
652,819,60,0.135764055760541,1
652,830,60,0.144865206228474,1
616,839,61,0.129672789663567,1
617,839,61,0.119358398210519,1
617,840,61,0.126352243337568,1
618,841,61,0.117371629095794,1
619,842,61,0.11721572694026,1
628,849,61,0.139551071982185,1
629,847,61,0.115330921933603,1
629,848,61,0.133634209497638,1
629,849,61,0.137325102936877,1
630,847,61,0.125815147574969,1
630,848,61,0.142450124264782,1
630,849,61,0.140308206713963,1
631,847,61,0.144590640368516,1
631,848,61,0.147188617065207,1
631,849,61,0.128561359687259,1
632,847,61,0.123117385490467,1
632,848,61,0.118567675856171,1
642,842,61,0.126760865266149,1
642,843,61,0.159310180422533,1
643,841,61,0.118697492252942,1
643,842,61,0.170144237876117,1
644,840,61,0.125947507774852,1
644,841,61,0.160660598345831,1
645,839,61,0.113982847606691,1
645,840,61,0.163240379784152,1
648,816,61,0.120217697257092,1
648,817,61,0.113922738481306,1
648,835,61,0.124318119443616,1
648,836,61,0.140542731228641,1
649,834,61,0.134419337840513,1
649,835,61,0.169863618706902,1
650,831,61,0.120118877572315,1
650,832,61,0.130615044956067,1
650,833,61,0.133032423408679,1
651,819,61,0.116366450006873,1
651,830,61,0.118443347479077,1
651,831,61,0.143639929286042,1
651,832,61,0.135038494807203,1
652,830,61,0.131194419668535,1
617,840,62,0.115180708004472,1
622,846,62,0.116243452415666,1
623,809,62,0.122169983707412,1
623,810,62,0.131904859125597,1
624,809,62,0.11390500252072,1
627,846,62,0.134470143241553,1
627,849,62,0.123919825826743,1
628,847,62,0.123412784626837,1
628,848,62,0.125109030227824,1
630,847,62,0.119598186984415,1
630,848,62,0.133231558440249,1
630,849,62,0.121294703453326,1
631,847,62,0.154376968915385,1
631,848,62,0.172027099699841,1
631,849,62,0.142826006505164,1
632,847,62,0.14008537662748,1
632,848,62,0.157561445328631,1
632,849,62,0.134977266879523,1
645,813,62,0.116626271230275,1
616,840,63,0.152822387238625,1
617,840,63,0.114982950866254,1
617,841,63,0.123470020196855,1
621,845,63,0.132032885438696,1
622,810,63,0.13344636848081,1
622,811,63,0.131626642437099,1
622,845,63,0.124070275293199,1
623,809,63,0.140871753318179,1
623,810,63,0.17334609694396,1
623,811,63,0.139129142194731,1
623,845,63,0.114182854126364,1
624,809,63,0.132066296408272,1
624,810,63,0.133338669038873,1
626,845,63,0.114446538161899,1
627,846,63,0.121051275627756,1
627,848,63,0.143057951886131,1
627,849,63,0.115930317318711,1
630,848,63,0.12584378891371,1
631,847,63,0.151772244074328,1
631,848,63,0.185037192285795,1
631,849,63,0.150667974432706,1
632,847,63,0.154381974083545,1
632,848,63,0.192120671141939,1
632,849,63,0.155455706310959,1
633,847,63,0.113871367790685,1
633,848,63,0.128809804457855,1
642,843,63,0.120727659119831,1
645,813,63,0.114554543802358,1
646,814,63,0.122831278301576,1
646,815,63,0.116262377839744,1
647,815,63,0.114625287437975,1
617,840,64,0.119761178813436,1
621,844,64,0.127416153658521,1
621,845,64,0.115856264383676,1
622,810,64,0.143752681003604,1
622,811,64,0.171525263874821,1
622,812,64,0.156349405583874,1
622,813,64,0.11888888988338,1
622,844,64,0.11801680116005,1
623,809,64,0.144503491558201,1
623,810,64,0.196891715200703,1
623,811,64,0.18403876134124,1
623,812,64,0.144294911479891,1
623,846,64,0.124951385096084,1
624,809,64,0.136803305323549,1
624,810,64,0.153793107216873,1
624,811,64,0.121901188511921,1
626,810,64,0.124036134157915,1
626,848,64,0.139597743703169,1
627,809,64,0.121249456733159,1
627,810,64,0.139108379579517,1
627,847,64,0.119764782534512,1
627,848,64,0.114329393673222,1
630,807,64,0.128145283002336,1
630,808,64,0.137781880471591,1
631,807,64,0.14215067388642,1
631,808,64,0.140939929596951,1
631,847,64,0.1341049661726,1
631,848,64,0.175011981783732,1
631,849,64,0.143127812256778,1
632,847,64,0.151318210549453,1
632,848,64,0.201524063105537,1
632,849,64,0.157997483801863,1
633,848,64,0.140515432452653,1
643,842,64,0.118767953243768,1
646,815,64,0.11728107677113,1
646,816,64,0.115833275940738,1
646,817,64,0.131027459035584,1
617,840,65,0.128290150234185,1
620,817,65,0.114035160446613,1
621,816,65,0.119439764579501,1
622,810,65,0.13404115911121,1
622,811,65,0.185745971204714,1
622,812,65,0.195862829280003,1
622,813,65,0.174328004945153,1
622,814,65,0.14000098360387,1
623,809,65,0.125863774255752,1
623,810,65,0.18069580363875,1
623,811,65,0.207064678266849,1
623,812,65,0.193919940768958,1
623,813,65,0.163649343241855,1
623,814,65,0.123951658696241,1
623,846,65,0.114689412474754,1
623,847,65,0.118993574447554,1
624,809,65,0.122804827459959,1
624,810,65,0.15532043722511,1
624,811,65,0.151601397075512,1
624,812,65,0.127426599738893,1
624,846,65,0.148976333586426,1
625,810,65,0.123311927544196,1
625,845,65,0.116030432458777,1
625,848,65,0.137281092787668,1
626,809,65,0.137598385118413,1
626,810,65,0.164387717425683,1
626,846,65,0.162583689944695,1
626,847,65,0.163606145696417,1
626,848,65,0.135514115327931,1
627,809,65,0.162679553636042,1
627,810,65,0.186282407462802,1
628,808,65,0.114318582509997,1
628,809,65,0.119347481055497,1
629,808,65,0.121842092197035,1
630,807,65,0.138533892266546,1
630,808,65,0.148208882319805,1
631,807,65,0.169825720751281,1
631,808,65,0.151376305830708,1
631,848,65,0.148500253767914,1
631,849,65,0.12573465269409,1
632,807,65,0.144475497947104,1
632,847,65,0.133080732114073,1
632,848,65,0.181265297560427,1
632,849,65,0.144028518765117,1
633,848,65,0.140646544304712,1
646,816,65,0.114268530828397,1
646,817,65,0.132571017565526,1
646,818,65,0.120691539471015,1
617,840,66,0.131461318788558,1
620,816,66,0.119731171358209,1
620,817,66,0.122049117728998,1
620,818,66,0.11561052829232,1
620,819,66,0.13245317824174,1
620,820,66,0.117211404830343,1
621,814,66,0.117878093229253,1
621,815,66,0.125021975632439,1
621,816,66,0.134421292800312,1
621,817,66,0.122290355057443,1
622,810,66,0.114315485194171,1
622,811,66,0.165903918295305,1
622,812,66,0.199780545163387,1
622,813,66,0.207798706787027,1
622,814,66,0.185242569056482,1
622,815,66,0.139135972777161,1
623,810,66,0.14235711057507,1
623,811,66,0.196022476479007,1
623,812,66,0.21866924897228,1
623,813,66,0.206319273293864,1
623,814,66,0.167804586740813,1
623,815,66,0.114041178425271,1
624,810,66,0.136575528953237,1
624,811,66,0.164681008502992,1
624,812,66,0.156045633095595,1
624,813,66,0.121795726674574,1
624,846,66,0.11955655576219,1
624,847,66,0.120972653268613,1
625,810,66,0.129949463582585,1
625,811,66,0.122799645638805,1
625,846,66,0.153788949983084,1
625,847,66,0.151381075461542,1
626,809,66,0.147102233751199,1
626,810,66,0.17296214755019,1
626,811,66,0.11413224893205,1
626,846,66,0.140318452587608,1
626,847,66,0.140348306943574,1
626,848,66,0.12480376207753,1
627,808,66,0.116060545905801,1
627,809,66,0.178677672729178,1
627,810,66,0.187550222446161,1
628,808,66,0.117091775422886,1
628,809,66,0.140487662602015,1
628,810,66,0.117799235332785,1
629,808,66,0.113953193457451,1
630,807,66,0.122513844648437,1
630,808,66,0.124292151453515,1
631,807,66,0.169340231216628,1
631,808,66,0.133440680254407,1
632,808,66,0.117102881007768,1
632,848,66,0.136405518111925,1
641,818,66,0.127105067736295,1
646,817,66,0.114333492022681,1
617,839,67,0.113964110612473,1
620,816,67,0.114179344620219,1
620,817,67,0.115822358785717,1
620,818,67,0.11757675855229,1
620,819,67,0.145959889500961,1
620,820,67,0.126446882234823,1
621,814,67,0.123942708277884,1
621,815,67,0.134801662026738,1
621,816,67,0.138518123042626,1
621,817,67,0.121314123505787,1
622,811,67,0.132999554174951,1
622,812,67,0.175635555075269,1
622,813,67,0.208817594148273,1
622,814,67,0.21474708143345,1
622,815,67,0.174840828586393,1
622,816,67,0.124870419140554,1
623,811,67,0.165765551893631,1
623,812,67,0.211004181352811,1
623,813,67,0.216217588061989,1
623,814,67,0.194163533470655,1
623,815,67,0.142469285226185,1
624,810,67,0.115330780611208,1
624,811,67,0.162572949442667,1
624,812,67,0.167740685464492,1
624,813,67,0.132863743353254,1
625,810,67,0.129514061060131,1
625,811,67,0.140186410363115,1
625,812,67,0.114714650299147,1
625,846,67,0.114879867955891,1
626,809,67,0.143703913000426,1
626,810,67,0.159626436389047,1
626,811,67,0.124529349316833,1
626,847,67,0.117839912628842,1
627,808,67,0.115740980639868,1
627,809,67,0.171155752919085,1
627,810,67,0.161424704982434,1
628,809,67,0.152923385643661,1
628,810,67,0.124305624188515,1
640,817,67,0.128239686362266,1
640,818,67,0.141528749356159,1
641,817,67,0.143334979111137,1
641,818,67,0.179105561610958,1
641,819,67,0.120244878264418,1
620,819,68,0.129507972420275,1
620,820,68,0.1137775768278,1
621,814,68,0.12407795381,1
621,815,68,0.134516167234893,1
621,816,68,0.126599227776747,1
622,812,68,0.144342172044188,1
622,813,68,0.185047473490039,1
622,814,68,0.209476910228906,1
622,815,68,0.186804040200003,1
622,816,68,0.132054201566625,1
623,811,68,0.137622280380052,1
623,812,68,0.181174285937979,1
623,813,68,0.195782240184194,1
623,814,68,0.188894139539283,1
623,815,68,0.15191521523071,1
623,818,68,0.114944346298658,1
624,811,68,0.151194659445532,1
624,812,68,0.16006543085571,1
624,813,68,0.133380535798423,1
625,810,68,0.122590676923909,1
625,811,68,0.145276819481085,1
625,812,68,0.122408029505101,1
626,809,68,0.1231857501991,1
626,810,68,0.134377141328708,1
626,811,68,0.125058731232033,1
627,809,68,0.13942485930649,1
627,810,68,0.12808048668418,1
628,809,68,0.136865133871407,1
628,810,68,0.115945768567242,1
640,817,68,0.13817508648224,1
640,818,68,0.164403286442877,1
641,817,68,0.148398960941222,1
641,818,68,0.19660073238918,1
641,819,68,0.146005901717435,1
641,820,68,0.122166168002744,1
621,814,69,0.115548899951187,1
621,815,69,0.122718432369084,1
621,825,69,0.116693246268688,1
622,812,69,0.115330639288813,1
622,813,69,0.14768697871468,1
622,814,69,0.173937130754024,1
622,815,69,0.169402471954806,1
622,816,69,0.130137740343464,1
623,812,69,0.140845973757939,1
623,813,69,0.155382407095364,1
623,814,69,0.160044479810636,1
623,815,69,0.142683635968961,1
623,818,69,0.122406863595342,1
624,811,69,0.133837407548067,1
624,812,69,0.136753442071809,1
624,813,69,0.122004495182744,1
624,818,69,0.119838670593419,1
625,810,69,0.116306270220291,1
625,811,69,0.13538177868178,1
625,812,69,0.117275659412651,1
626,810,69,0.116961181752942,1
626,811,69,0.117881331867475,1
640,817,69,0.127655247597307,1
640,818,69,0.16494804894541,1
640,819,69,0.143146749457722,1
640,820,69,0.114227123366631,1
641,817,69,0.132309264936058,1
641,818,69,0.180593368456031,1
641,819,69,0.163300901099856,1
641,820,69,0.138509596591455,1
619,829,70,0.116709439459794,1
619,840,70,0.129897504048651,1
620,825,70,0.128948806810307,1
620,829,70,0.118203134737996,1
620,830,70,0.11448279913311,1
620,833,70,0.117152614713979,1
621,824,70,0.116828986429187,1
621,825,70,0.145092111110682,1
622,814,70,0.129550840213457,1
622,815,70,0.134488114739464,1
622,816,70,0.120522776977527,1
622,825,70,0.125002214050857,1
623,813,70,0.115511567285147,1
623,814,70,0.125115201305744,1
623,815,70,0.123016198655572,1
623,816,70,0.114393495156269,1
623,817,70,0.117512327316988,1
623,818,70,0.125426487434696,1
624,818,70,0.123729123031414,1
624,819,70,0.11478489930638,1
625,811,70,0.1161346812789,1
640,818,70,0.143775316140553,1
640,819,70,0.148968855276352,1
640,820,70,0.126876266778619,1
641,818,70,0.146487139803368,1
641,819,70,0.153404953481849,1
641,820,70,0.134676485715274,1
