x,y,z,signal,mito.p
707,940,28,0.241469403371707,1
707,941,28,0.193707592093445,1
707,942,28,0.210998669779402,1
707,943,28,0.177546728485479,1
708,942,28,0.192386027492482,1
711,933,28,0.174558961069355,1
711,940,28,0.209839873247002,1
711,941,28,0.195307090738117,1
712,934,28,0.127845220226928,1
712,940,28,0.165353361574573,1
712,941,28,0.148430275628604,1
718,936,28,0.142647057022362,1
718,937,28,0.139452252297408,1
718,938,28,0.132103464198185,1
718,939,28,0.145608585580461,1
718,940,28,0.120934672874928,1
719,939,28,0.204688436408078,1
719,940,28,0.15769428838003,1
705,941,29,0.195038884385939,1
705,942,29,0.202302631733906,1
705,943,29,0.210959382153563,1
706,940,29,0.180682472226145,1
706,941,29,0.158067108635185,1
706,942,29,0.166396874363166,1
706,943,29,0.178518708588416,1
707,939,29,0.243748391868912,1
707,940,29,0.187591853668385,1
707,941,29,0.163334217854502,1
707,942,29,0.161719067754573,1
707,943,29,0.1431830222058,1
708,939,29,0.178794711226058,1
708,940,29,0.137755276530712,1
708,941,29,0.145384636691684,1
708,942,29,0.16103734029745,1
708,943,29,0.123563222316427,1
708,944,29,0.123187363629777,1
709,932,29,0.136741359007027,1
709,939,29,0.113789177041065,1
709,942,29,0.126067596480093,1
710,932,29,0.145740321606432,1
710,938,29,0.125809164926909,1
710,940,29,0.113800836138661,1
710,941,29,0.116685190892167,1
710,945,29,0.143984237747984,1
711,932,29,0.136464955955933,1
711,933,29,0.210695603903098,1
711,939,29,0.121000988408831,1
711,940,29,0.183351369211446,1
711,941,29,0.17651541653033,1
712,933,29,0.162165375655182,1
712,934,29,0.167828340680057,1
712,935,29,0.149183182465396,1
712,940,29,0.153694040217904,1
712,941,29,0.14015563741158,1
718,935,29,0.125746406006616,1
718,936,29,0.174233448485961,1
718,937,29,0.132553528919131,1
718,938,29,0.115634070247971,1
718,939,29,0.147134667240875,1
718,940,29,0.137882937760958,1
719,936,29,0.213476993514904,1
719,937,29,0.149985540363607,1
719,938,29,0.147739574199392,1
719,939,29,0.220746075783286,1
719,940,29,0.193759504519914,1
719,941,29,0.124997691734213,1
720,939,29,0.160558752006425,1
720,940,29,0.14145064517913,1
703,942,30,0.197318991685438,1
703,943,30,0.17220719153867,1
704,941,30,0.20480417944967,1
704,942,30,0.175528373815447,1
704,943,30,0.170994845595391,1
705,940,30,0.147392239082821,1
705,941,30,0.137416302989185,1
705,942,30,0.144909169270218,1
705,943,30,0.169434210609374,1
706,939,30,0.186134407584528,1
706,940,30,0.128340743651633,1
706,941,30,0.117410115894728,1
706,942,30,0.129362410353316,1
706,943,30,0.159100752409853,1
707,933,30,0.164641897530146,1
707,938,30,0.222689729790638,1
707,939,30,0.168437887723879,1
707,940,30,0.134051640522181,1
707,941,30,0.133702974619723,1
707,942,30,0.127766892289441,1
707,943,30,0.12961715574736,1
708,932,30,0.114203122113196,1
708,933,30,0.164697555000085,1
708,938,30,0.210931588749192,1
708,939,30,0.128723586019974,1
708,941,30,0.126998322220525,1
708,942,30,0.121586063124568,1
709,932,30,0.157414905781772,1
709,933,30,0.19384085911203,1
709,938,30,0.151277227054872,1
709,944,30,0.135101748355879,1
710,931,30,0.11476066251562,1
710,932,30,0.173206258434003,1
710,933,30,0.213439896386189,1
710,937,30,0.159906125185827,1
710,944,30,0.119199858036943,1
710,945,30,0.207077091083885,1
711,932,30,0.14602096432938,1
711,933,30,0.21197294637126,1
711,934,30,0.24839643833647,1
711,936,30,0.149072562360627,1
711,940,30,0.136702801546896,1
711,941,30,0.134976760474274,1
711,945,30,0.150583793392688,1
712,932,30,0.131683454039931,1
712,933,30,0.194176111163819,1
712,934,30,0.197879617626822,1
712,935,30,0.135668945788635,1
712,940,30,0.123528091924377,1
712,941,30,0.114700400290973,1
712,945,30,0.123428848272414,1
713,933,30,0.12892515886286,1
713,934,30,0.115966248537667,1
718,935,30,0.135368953674425,1
718,936,30,0.169026047978576,1
718,939,30,0.133105498863815,1
718,940,30,0.148075568193756,1
718,941,30,0.128023592643284,1
718,942,30,0.117957092448117,1
719,935,30,0.172416772650612,1
719,936,30,0.217580100826934,1
719,937,30,0.126091079551413,1
719,938,30,0.116452739105951,1
719,939,30,0.208821598282801,1
719,940,30,0.231247625194919,1
719,941,30,0.187695066124278,1
720,936,30,0.120565880308034,1
720,939,30,0.168248386168909,1
720,940,30,0.201200905895396,1
701,940,31,0.206275251367789,1
701,943,31,0.189158247542003,1
702,940,31,0.194454162976189,1
702,941,31,0.197339247895403,1
702,942,31,0.175985304449423,1
702,943,31,0.16149730936292,1
702,944,31,0.194158916939081,1
703,940,31,0.194803523713757,1
703,941,31,0.18867209850284,1
703,942,31,0.162770223729368,1
703,943,31,0.161589639994389,1
704,940,31,0.160393981870598,1
704,941,31,0.145542552691348,1
704,942,31,0.134847462259619,1
704,943,31,0.155516628040116,1
705,932,31,0.119600283266609,1
705,939,31,0.167990143045586,1
705,940,31,0.120784352954001,1
705,942,31,0.115125238964393,1
705,943,31,0.153599848841566,1
706,937,31,0.19412401030749,1
706,938,31,0.169646818375944,1
706,939,31,0.132731194723512,1
706,942,31,0.114125583225748,1
706,943,31,0.156092198824782,1
707,933,31,0.132444121831587,1
707,936,31,0.200609259688286,1
707,937,31,0.201649722268518,1
707,938,31,0.155889460072137,1
707,943,31,0.135109744848069,1
708,933,31,0.116136742230495,1
708,934,31,0.137142420187471,1
708,935,31,0.168048862500753,1
708,936,31,0.215517712453961,1
708,937,31,0.209592723931695,1
708,938,31,0.138324146278477,1
709,932,31,0.144944546976459,1
709,933,31,0.155801722418509,1
709,934,31,0.18171486765299,1
709,937,31,0.168002991606675,1
710,931,31,0.116438771742568,1
710,932,31,0.162382340862268,1
710,933,31,0.182821763535788,1
710,934,31,0.216867388434684,1
710,936,31,0.173105012714776,1
710,944,31,0.146461336689395,1
711,932,31,0.13633001662234,1
711,933,31,0.186281618412763,1
711,934,31,0.210004867143287,1
711,935,31,0.165271206155551,1
711,945,31,0.157111203954691,1
712,931,31,0.113811800401148,1
712,932,31,0.157147582694564,1
712,933,31,0.212238232060606,1
712,934,31,0.196444370935862,1
713,930,31,0.131708597649394,1
713,931,31,0.165303027248183,1
713,932,31,0.176128028291613,1
713,933,31,0.167464777041781,1
713,934,31,0.122329230492964,1
714,930,31,0.14408743842701,1
714,931,31,0.171044449756073,1
714,932,31,0.148426872114256,1
718,935,31,0.12335079120285,1
718,936,31,0.134566807759805,1
718,939,31,0.117294525952398,1
718,940,31,0.163619512439621,1
718,941,31,0.169384877316616,1
718,942,31,0.141073644136454,1
719,935,31,0.16024145967568,1
719,936,31,0.17755132146332,1
719,939,31,0.17745121810012,1
719,940,31,0.275458899726014,2
719,941,31,0.278121814063255,2
719,942,31,0.208275905407833,1
719,944,31,0.209548984650409,2
720,939,31,0.161542179223366,1
720,940,31,0.273455890312717,2
720,941,31,0.285164238763621,2
721,940,31,0.144972458149493,1
696,939,32,0.139022667546885,1
696,940,32,0.128949219000626,1
697,940,32,0.176707921186196,1
697,941,32,0.163962254578351,1
698,941,32,0.199472391680859,1
699,935,32,0.173928698517782,1
699,941,32,0.224250258784859,1
700,939,32,0.219323265463096,1
700,940,32,0.20872587591385,1
700,941,32,0.19673376387044,1
700,942,32,0.214233939816822,1
701,939,32,0.171711668113965,1
701,940,32,0.155593530976786,1
701,941,32,0.153794284903499,1
701,942,32,0.152075368834964,1
701,943,32,0.152723025818,1
701,944,32,0.198033706144952,1
702,932,32,0.139154403572856,1
702,939,32,0.164284351870529,1
702,940,32,0.137844580507553,1
702,941,32,0.138570141460891,1
702,942,32,0.131584881669345,1
702,943,32,0.13590980625736,1
702,944,32,0.173725830219608,1
703,932,32,0.119507611106018,1
703,939,32,0.16613275458358,1
703,940,32,0.129320414048237,1
703,941,32,0.125400625436392,1
703,942,32,0.124710183098237,1
703,943,32,0.143842185187171,1
703,944,32,0.19210955378019,1
704,932,32,0.141977553952415,1
704,939,32,0.144096412399099,1
704,943,32,0.144000701807014,1
704,944,32,0.209570442100733,1
705,932,32,0.146739023418911,1
705,937,32,0.182085638733416,1
705,938,32,0.148361404514723,1
705,943,32,0.151586169587439,1
706,932,32,0.113917792197478,1
706,933,32,0.2044260242741,1
706,936,32,0.159686592621897,1
706,937,32,0.133020399228229,1
706,943,32,0.160192550350107,1
707,934,32,0.124198136730171,1
707,935,32,0.125776307470047,1
707,936,32,0.131509969023073,1
707,937,32,0.126270782753656,1
707,943,32,0.141804104266156,1
708,936,32,0.123455499320757,1
708,937,32,0.114944452290454,1
708,943,32,0.119329262243395,1
709,932,32,0.117630355070633,1
709,933,32,0.117545667625366,1
709,934,32,0.123449822871221,1
709,935,32,0.128937877878419,1
709,936,32,0.118782297466871,1
710,932,32,0.131400385282535,1
710,933,32,0.139060188642786,1
710,934,32,0.147311543995216,1
710,935,32,0.131048516072455,1
710,944,32,0.159088104055491,1
711,932,32,0.121410258065057,1
711,933,32,0.15317710645034,1
711,934,32,0.15274370599515,1
711,945,32,0.156352243808642,1
711,947,32,0.127949186402261,1
712,931,32,0.130702476411172,1
712,932,32,0.165106294697329,1
712,933,32,0.193814396493546,1
712,934,32,0.155661000643582,1
713,930,32,0.14367531876915,1
713,931,32,0.217859094788605,1
713,932,32,0.226531531994118,1
713,933,32,0.179507659155633,1
714,930,32,0.16274311338324,1
714,931,32,0.232525697828789,1
714,932,32,0.19486048841585,1
715,930,32,0.116458450886087,1
715,931,32,0.147716479764659,1
715,932,32,0.116287403680544,1
717,941,32,0.123073469556188,1
717,944,32,0.123030130688356,1
718,940,32,0.19484509605165,2
718,941,32,0.231892573498716,2
718,942,32,0.173036365361353,1
718,943,32,0.174496225702794,1
718,944,32,0.197660991881594,2
719,935,32,0.127526573556564,1
719,936,32,0.127422136306581,1
719,939,32,0.16768097675256,2
719,940,32,0.340501990337505,2
719,941,32,0.394629150721182,2
719,942,32,0.269947514746756,2
719,943,32,0.295067947336492,2
719,944,32,0.330078615764099,2
719,945,32,0.281294643155771,2
720,939,32,0.170779140512995,2
720,940,32,0.349257454450143,2
720,941,32,0.385725722060869,2
720,942,32,0.252808711941526,2
720,943,32,0.275510576615157,2
720,944,32,0.302368167639263,2
720,945,32,0.266901192751593,2
720,946,32,0.223117159374635,2
721,940,32,0.180152689897493,2
721,941,32,0.181496100585367,2
695,938,33,0.147036836812863,1
695,939,33,0.118191204772476,1
695,940,33,0.146245078094284,1
696,939,33,0.140533580603558,1
696,940,33,0.128970228930032,1
697,939,33,0.166565672187253,1
697,940,33,0.128384294503058,1
697,941,33,0.154601141564622,1
698,935,33,0.194573792383646,1
698,939,33,0.199729574886219,1
698,940,33,0.171352721007263,1
698,941,33,0.170355079112748,1
699,935,33,0.167125838830853,1
699,936,33,0.180899413879499,1
699,938,33,0.187552683811209,1
699,939,33,0.201656788388274,1
699,940,33,0.20071155354861,1
699,941,33,0.192076142810614,1
699,942,33,0.219011461152028,1
699,944,33,0.224151639306808,1
700,936,33,0.163651922375565,1
700,937,33,0.157079712614314,1
700,938,33,0.159549097708325,1
700,939,33,0.165638102646978,1
700,940,33,0.168621936589772,1
700,941,33,0.16132694521562,1
700,942,33,0.160977572701186,1
700,943,33,0.186948848547521,1
700,944,33,0.242281182762926,1
701,938,33,0.172991683930767,1
701,939,33,0.135025822899108,1
701,940,33,0.123497342526575,1
701,941,33,0.118056924943393,1
701,943,33,0.133398106882881,1
701,944,33,0.20411429062423,1
702,939,33,0.127192322538406,1
702,943,33,0.118187389067808,1
702,944,33,0.154517985111968,1
703,932,33,0.169209708207882,1
703,938,33,0.172301583121734,1
703,939,33,0.115261355984612,1
703,943,33,0.128426385023067,1
703,944,33,0.158387922248941,1
704,932,33,0.184492276684,1
704,937,33,0.181474996441031,1
704,938,33,0.13520527878716,1
704,943,33,0.143428016354581,1
704,944,33,0.189096925399394,1
705,932,33,0.161289965855567,1
705,936,33,0.153083327264322,1
705,937,33,0.125793560579117,1
705,943,33,0.163121056575218,1
705,944,33,0.245583321846963,1
706,933,33,0.163833356777148,1
706,935,33,0.141214754547967,1
706,943,33,0.172174357635541,1
706,944,33,0.269773641093311,1
707,943,33,0.153046972078181,1
708,943,33,0.133368947362024,1
710,944,33,0.156523926964963,1
711,933,33,0.113901375245913,1
711,945,33,0.148410384501493,1
711,946,33,0.156228103861408,1
712,931,33,0.127921145683698,1
712,932,33,0.149692225732566,1
712,933,33,0.144634497418464,1
713,930,33,0.135782357010707,1
713,931,33,0.222162126182244,1
713,932,33,0.229877810772893,1
713,933,33,0.155746689122481,1
714,930,33,0.166498767810037,1
714,931,33,0.257077190009562,1
714,932,33,0.212128942741724,1
715,930,33,0.148067277279909,1
715,931,33,0.183266540443784,1
715,932,33,0.125556398046397,1
715,945,33,0.117200558336519,1
716,944,33,0.126236476742244,1
716,945,33,0.141835042093818,1
717,941,33,0.12476400337704,1
717,944,33,0.145726813540834,1
717,945,33,0.170908568273179,1
718,940,33,0.207953972991783,2
718,941,33,0.287771448523459,2
718,942,33,0.212473910708177,2
718,943,33,0.193582345120783,2
718,944,33,0.230199955172536,2
718,945,33,0.245086102553517,2
719,939,33,0.154652064734325,2
719,940,33,0.357245208205103,2
719,941,33,0.470029665455031,2
719,942,33,0.331576515383555,2
719,943,33,0.341033315435637,2
719,944,33,0.398634392274602,2
719,945,33,0.366837300896766,2
719,946,33,0.280872112748137,2
719,947,33,0.236485904645635,2
720,939,33,0.175990780692233,2
720,940,33,0.358502718430485,2
720,941,33,0.413625966162331,2
720,942,33,0.2934681071627,2
720,943,33,0.346508875187735,2
720,944,33,0.413466460285722,2
720,945,33,0.384774598788076,2
720,946,33,0.329554168355862,2
720,947,33,0.293439842683678,2
721,939,33,0.121092800858185,1
721,940,33,0.18333077147236,2
721,941,33,0.182569715044118,2
721,942,33,0.144411726216312,2
721,943,33,0.176007645164715,2
721,944,33,0.208222697526076,2
721,945,33,0.225321247002434,2
721,946,33,0.249638238222262,2
721,947,33,0.252164870663157,2
694,939,34,0.122123288432696,1
694,940,34,0.189408129090282,1
695,938,34,0.165925752605349,1
695,939,34,0.141422380700109,1
696,939,34,0.137938053495049,1
696,940,34,0.136353558577991,1
697,939,34,0.134367083884922,1
697,941,34,0.156110876934668,1
698,935,34,0.192595926579812,1
698,938,34,0.181651873195372,1
698,939,34,0.147168313747777,1
698,940,34,0.126080598140442,1
698,941,34,0.150080344136991,1
698,942,34,0.214081099646515,1
698,944,34,0.189541360778268,1
699,934,34,0.16483610983162,1
699,935,34,0.143975346213959,1
699,936,34,0.142541736507409,1
699,937,34,0.139523090147954,1
699,938,34,0.153132095267499,1
699,939,34,0.148843667188021,1
699,940,34,0.148151246336335,1
699,941,34,0.15752490171263,1
699,942,34,0.171215226093692,1
699,943,34,0.189340400332428,1
699,944,34,0.182357884550721,1
700,935,34,0.153699210262192,1
700,936,34,0.124095889977312,1
700,937,34,0.129920386499792,1
700,938,34,0.136101510086321,1
700,939,34,0.127161219834617,1
700,940,34,0.128498070807984,1
700,941,34,0.127995127957536,1
700,942,34,0.122224816796713,1
700,943,34,0.149352981323115,1
700,944,34,0.21508173286506,1
701,931,34,0.120654312796771,1
701,936,34,0.170089922968931,1
701,937,34,0.164545727640277,1
701,938,34,0.137291479983708,1
701,943,34,0.119687278977662,1
701,944,34,0.19356781246782,1
702,938,34,0.1457325842053,1
702,944,34,0.13525089059018,1
703,932,34,0.204661561599276,1
703,936,34,0.221210154975081,1
703,937,34,0.182397337052688,1
703,938,34,0.124985644000031,1
703,943,34,0.113825638219002,1
703,944,34,0.13451239863769,1
704,932,34,0.201790597142706,1
704,933,34,0.259291829709529,1
704,935,34,0.199172199359923,1
704,936,34,0.157274961280019,1
704,937,34,0.125351421689163,1
704,943,34,0.141337834577237,1
704,944,34,0.181315396349492,1
704,945,34,0.174336990694109,1
705,932,34,0.158842733046989,1
705,933,34,0.202913050265832,1
705,935,34,0.138866459192829,1
705,943,34,0.165600475559281,1
705,944,34,0.243969325879927,1
706,933,34,0.118085919588122,1
706,943,34,0.170208810433814,1
706,944,34,0.264649715013969,1
707,943,34,0.157795039470874,1
707,944,34,0.252951164915792,1
708,943,34,0.145285510808384,1
709,943,34,0.114417885046291,1
710,944,34,0.142990647095462,1
710,946,34,0.196840214964553,1
711,945,34,0.130335415043618,1
711,946,34,0.124146259634301,1
712,932,34,0.114092867091281,1
713,931,34,0.175477109116623,1
713,932,34,0.177102140007343,1
714,930,34,0.145245810992225,1
714,931,34,0.217797902191524,1
714,932,34,0.178015706853637,1
715,930,34,0.158561996109112,1
715,931,34,0.180921648602995,1
715,945,34,0.137717178368365,1
716,930,34,0.128129384232887,1
716,931,34,0.114739581925016,1
716,944,34,0.130111949006358,1
716,945,34,0.1804633636294,1
716,946,34,0.141230229350231,1
717,944,34,0.149898591760019,1
717,945,34,0.206668127626182,1
718,940,34,0.179930825514044,1
718,941,34,0.287634507122602,2
718,942,34,0.229816947928068,2
718,943,34,0.188068063032426,2
718,944,34,0.223111247387773,2
718,945,34,0.270917057038378,2
718,946,34,0.276617719812147,2
718,947,34,0.238429770636579,2
719,939,34,0.128188539432104,1
719,940,34,0.300080935335677,2
719,941,34,0.457536671512769,2
719,942,34,0.376304229053831,2
719,943,34,0.34749556459663,2
719,944,34,0.39655097041849,2
719,945,34,0.402512090366439,2
719,946,34,0.355678602347893,2
719,947,34,0.297564360338567,2
719,948,34,0.189835864872802,2
720,939,34,0.162394953886031,1
720,940,34,0.294787705026998,2
720,941,34,0.38050687443948,2
720,942,34,0.340537156060154,2
720,943,34,0.392137142267088,2
720,944,34,0.476136394577403,2
720,945,34,0.468332995886859,2
720,946,34,0.417234492198957,2
720,947,34,0.383563560076951,2
720,948,34,0.240571841286659,2
721,939,34,0.118097343148394,1
721,940,34,0.157129352105595,1
721,941,34,0.175317461917619,2
721,942,34,0.177219331603484,2
721,943,34,0.216503483267287,2
721,944,34,0.265255093047136,2
721,945,34,0.29189233890354,2
721,946,34,0.322769704134029,2
721,947,34,0.354926696544733,2
721,948,34,0.227553881754045,2
722,945,34,0.134786434538666,2
722,946,34,0.175383023732081,2
722,947,34,0.208035516013759,2
693,940,35,0.143574756108166,1
694,939,35,0.139507509353894,1
695,938,35,0.162285169938767,1
695,939,35,0.156291098319027,1
696,939,35,0.135647358792783,1
696,940,35,0.142837123866912,1
697,941,35,0.159810084841487,1
698,933,35,0.116633207804501,1
698,934,35,0.118033135673551,1
698,935,35,0.170254952195816,1
698,938,35,0.140372037329086,1
698,941,35,0.132750343908048,1
698,942,35,0.191096048446824,1
698,943,35,0.192665857611657,1
698,944,35,0.147616941691039,1
699,934,35,0.153164787848234,1
699,935,35,0.119426280067635,1
699,937,35,0.119026690995474,1
699,938,35,0.128501026801415,1
699,941,35,0.121683151610006,1
699,942,35,0.13252759625963,1
699,943,35,0.141343934993959,1
700,935,35,0.122486804963506,1
700,938,35,0.118326921379243,1
700,943,35,0.119185784681764,1
700,944,35,0.173033833335108,1
701,931,35,0.130003531175579,1
701,935,35,0.139157076921497,1
701,936,35,0.115064599880027,1
701,937,35,0.121188640995799,1
702,932,35,0.224005818148792,1
702,934,35,0.202218332925226,1
702,935,35,0.160376516777936,1
702,936,35,0.151657360743974,1
702,937,35,0.143647760902104,1
702,944,35,0.11534141512144,1
703,932,35,0.209010734754917,1
703,933,35,0.241744628736175,1
703,934,35,0.19784049487711,1
703,935,35,0.172288887659907,1
703,936,35,0.158325728618228,1
703,937,35,0.134231426162487,1
703,944,35,0.118194172542773,1
704,931,35,0.115175596844516,1
704,932,35,0.189488223557708,1
704,933,35,0.197306979281854,1
704,934,35,0.17029803197259,1
704,935,35,0.139790248359035,1
704,943,35,0.13251276918501,1
704,944,35,0.17342019698646,1
704,945,35,0.159916453497536,1
705,932,35,0.145058711917972,1
705,933,35,0.134736312195868,1
705,934,35,0.116357275828057,1
705,943,35,0.151742507487025,1
705,944,35,0.221308138502354,1
706,943,35,0.156538341849264,1
706,944,35,0.235306851903269,1
707,943,35,0.163365685641145,1
707,944,35,0.266465542914948,1
708,943,35,0.161073012425348,1
709,943,35,0.125142488304865,1
709,944,35,0.226259038862622,1
710,944,35,0.146394915163695,1
710,945,35,0.181989091983826,1
710,946,35,0.133852163961489,1
711,945,35,0.125321590886929,1
713,931,35,0.128974468601885,1
713,932,35,0.12170999108821,1
714,930,35,0.125505698637153,1
714,931,35,0.163122481576035,1
714,932,35,0.131466312179852,1
715,930,35,0.160994802256523,1
715,931,35,0.160001694455517,1
715,945,35,0.147061167818554,1
715,946,35,0.113877468207407,1
716,930,35,0.152170631906131,1
716,931,35,0.120095806691314,1
716,944,35,0.118530178314003,1
716,945,35,0.188399487602681,1
716,946,35,0.146875105108531,1
717,930,35,0.136009414992177,1
717,931,35,0.116158800300998,1
717,944,35,0.137940208661574,1
717,945,35,0.209679754973347,1
717,946,35,0.201896376955443,2
718,930,35,0.152859731681532,1
718,931,35,0.161499146554056,1
718,940,35,0.145896188431368,1
718,941,35,0.245750176488118,2
718,942,35,0.219761883070039,2
718,943,35,0.1728136648204,2
718,944,35,0.197111283095232,2
718,945,35,0.262374047593049,2
718,946,35,0.307096037706322,2
718,947,35,0.252920686385914,2
719,931,35,0.172567080794673,1
719,932,35,0.124334006436199,1
719,940,35,0.227035016580414,2
719,941,35,0.379728776885761,2
719,942,35,0.3657852969876,2
719,943,35,0.313209856502182,2
719,944,35,0.337339783978355,2
719,945,35,0.377252172572734,2
719,946,35,0.403373638794467,2
719,947,35,0.343872435245843,2
719,948,35,0.183891986257057,2
720,939,35,0.142508219546037,1
720,940,35,0.224050570240575,2
720,941,35,0.329680487023354,2
720,942,35,0.361522989997484,2
720,943,35,0.385605221165309,2
720,944,35,0.456783894221506,2
720,945,35,0.477921673287307,2
720,946,35,0.460446311198132,2
720,947,35,0.434880995708604,2
720,948,35,0.245076304200789,2
721,940,35,0.131477688632658,1
721,941,35,0.176662497813036,2
721,942,35,0.218813209385428,2
721,943,35,0.257156000798566,2
721,944,35,0.317230973271319,2
721,945,35,0.356109541438035,2
721,946,35,0.380752751853231,2
721,947,35,0.428535855705689,2
721,948,35,0.272197249508175,2
722,944,35,0.148048999583476,2
722,945,35,0.186993435763177,2
722,946,35,0.226411101759756,2
722,947,35,0.271898658841049,2
694,939,36,0.144526585992934,1
695,935,36,0.151326006834916,1
695,938,36,0.141885576626934,1
695,939,36,0.15285517403429,1
696,939,36,0.123716663106913,1
696,940,36,0.137410449886655,1
697,935,36,0.215829116351576,1
697,938,36,0.142934754088198,1
697,941,36,0.149641856075577,1
697,943,36,0.20718378949219,1
697,944,36,0.124035627752666,1
698,932,36,0.141299536208164,1
698,933,36,0.125564688960243,1
698,935,36,0.13603915157948,1
698,936,36,0.15820169466279,1
698,937,36,0.135872355822657,1
698,942,36,0.165279544176863,1
698,943,36,0.15338634603316,1
699,931,36,0.156287129515097,1
699,932,36,0.27625063489086,1
699,933,36,0.226892445837485,1
699,934,36,0.130512221136762,1
700,931,36,0.169166216240788,1
700,934,36,0.1616730555381,1
700,944,36,0.131056288804185,1
701,931,36,0.125633430528596,1
701,932,36,0.238332328845154,1
701,934,36,0.163484172692575,1
701,944,36,0.121156831680034,1
702,932,36,0.200472318287429,1
702,933,36,0.233704962554747,1
702,934,36,0.162173454585436,1
702,935,36,0.115388039734958,1
703,932,36,0.18428092904212,1
703,933,36,0.206736786756471,1
703,934,36,0.154665820114115,1
703,935,36,0.121685860289245,1
704,932,36,0.163070404273438,1
704,933,36,0.150631972552553,1
704,934,36,0.118682912492513,1
704,943,36,0.115548746851926,1
704,944,36,0.152655956564656,1
705,932,36,0.12744870491686,1
705,943,36,0.128947688008013,1
706,943,36,0.139192760826261,1
707,943,36,0.167236576704284,1
709,943,36,0.12997809314446,1
710,944,36,0.143644616478813,1
710,945,36,0.148793591952688,1
711,944,36,0.115553822681283,1
711,945,36,0.117041370435298,1
715,929,36,0.11493968265962,1
715,930,36,0.146334111203201,1
715,931,36,0.122702851575024,1
715,945,36,0.13450314202081,1
716,929,36,0.135989747625525,1
716,930,36,0.160888622030334,1
716,945,36,0.160645500403287,1
716,946,36,0.133600445222074,1
717,929,36,0.137880617718305,1
717,930,36,0.16518952181118,1
717,931,36,0.127376253635636,1
717,944,36,0.116550840401887,1
717,945,36,0.186175885707491,1
717,946,36,0.184405964031189,1
717,947,36,0.134857555034003,1
718,929,36,0.147398893012258,1
718,930,36,0.207503602072314,1
718,931,36,0.194189254146564,1
718,932,36,0.119290634122066,1
718,941,36,0.183151456906703,1
718,942,36,0.187499982334701,2
718,943,36,0.150480321845738,1
718,944,36,0.164629390498179,2
718,945,36,0.236736846111877,2
718,946,36,0.304962681937274,2
718,947,36,0.248761167884505,2
719,930,36,0.1930149474813,1
719,931,36,0.211629038322771,1
719,932,36,0.143700768577135,1
719,940,36,0.162312751359545,1
719,941,36,0.278632670967829,2
719,942,36,0.31258721358308,2
719,943,36,0.266582722734223,2
719,944,36,0.275030009810601,2
719,945,36,0.339108056893381,2
719,946,36,0.445351147994791,2
719,947,36,0.394789151226174,2
719,948,36,0.194764506955841,2
720,931,36,0.121863443655562,1
720,940,36,0.165460931470981,1
720,941,36,0.27862939699901,2
720,942,36,0.356893386102488,2
720,943,36,0.364789845590209,2
720,944,36,0.416239582537413,2
720,945,36,0.459156179053213,2
720,946,36,0.506582891378948,2
720,947,36,0.474198911647971,2
720,948,36,0.252946642599149,2
721,941,36,0.179713141918116,1
721,942,36,0.262171532600863,2
721,943,36,0.316871025130985,2
721,944,36,0.393860333338075,2
721,945,36,0.436467622238454,2
721,946,36,0.451692236755713,2
721,947,36,0.465989352393893,2
721,948,36,0.307058469502957,2
722,943,36,0.163618888265709,2
722,944,36,0.214156966218954,2
722,945,36,0.258558130941606,2
722,946,36,0.288273237241014,2
722,947,36,0.329053839969723,2
722,948,36,0.262063208985014,2
723,946,36,0.174039141969557,2
723,947,36,0.208227007859127,2
692,940,37,0.178405238482013,1
693,939,37,0.116013673978091,1
694,939,37,0.142635821891951,1
695,934,37,0.11852074504413,1
695,935,37,0.210827975879847,1
695,937,37,0.160225855327887,1
695,938,37,0.119999825231305,1
695,939,37,0.137318437230575,1
696,934,37,0.146046296368702,1
696,938,37,0.138828996981259,1
696,940,37,0.121942631304286,1
696,943,37,0.193647494744927,1
697,935,37,0.20507587175426,1
697,937,37,0.186558056794456,1
697,941,37,0.130675012759057,1
697,942,37,0.188072502911006,1
697,943,37,0.162280788944519,1
698,932,37,0.143137386849047,1
698,933,37,0.120743228137025,1
698,936,37,0.122959740358727,1
698,942,37,0.134976336507089,1
698,943,37,0.123553741939088,1
699,931,37,0.15776511445371,1
699,932,37,0.243919250644595,1
699,933,37,0.182286764055384,1
700,931,37,0.148633238141708,1
700,932,37,0.232411839085799,1
700,933,37,0.183196974494794,1
701,932,37,0.163905843388971,1
701,933,37,0.158188575233778,1
702,932,37,0.1504525519951,1
702,933,37,0.170364700812481,1
702,934,37,0.121502836010718,1
703,932,37,0.146461984417039,1
703,933,37,0.162160134949697,1
703,934,37,0.119818402606588,1
704,932,37,0.132931177689452,1
704,933,37,0.120721511595644,1
704,944,37,0.121173943466708,1
705,944,37,0.13489285030218,1
706,943,37,0.120196899311279,1
709,943,37,0.130260843926468,1
710,944,37,0.135865313256634,1
715,929,37,0.121952806516734,1
715,930,37,0.123516633033507,1
716,929,37,0.160996368579735,1
716,930,37,0.154058180922626,1
716,945,37,0.116292809262157,1
717,928,37,0.116200455076955,1
717,929,37,0.18735870704706,1
717,930,37,0.191898276799508,1
717,931,37,0.129130229435024,1
717,945,37,0.146896115037937,1
717,946,37,0.148719433025857,1
718,929,37,0.21181866942327,1
718,930,37,0.263170352182004,1
718,931,37,0.202400473938784,1
718,941,37,0.123537301433791,1
718,942,37,0.141855828262764,1
718,943,37,0.125158186867588,1
718,944,37,0.135214429412243,1
718,945,37,0.199429523887677,2
718,946,37,0.256787596868258,2
718,947,37,0.21025974208286,2
719,930,37,0.217841453042949,1
719,931,37,0.211690230919851,1
719,932,37,0.137265417778678,1
719,941,37,0.187524513547118,1
719,942,37,0.234361876154663,2
719,943,37,0.214757609951885,2
719,944,37,0.214786392613022,2
719,945,37,0.281569868520239,2
719,946,37,0.412011499120645,2
719,947,37,0.380709201001806,2
719,948,37,0.193528560172579,2
720,931,37,0.124122823670446,1
720,932,37,0.126540755635772,1
720,933,37,0.142164358605012,1
720,934,37,0.126428039248809,1
720,940,37,0.12047004017042,1
720,941,37,0.223157977993088,1
720,942,37,0.312953497677461,2
720,943,37,0.328990503982983,2
720,944,37,0.354323367686295,2
720,945,37,0.398373652455632,2
720,946,37,0.491789263059296,2
720,947,37,0.458835424323789,2
720,948,37,0.24552219991108,2
721,941,37,0.171944049238984,1
721,942,37,0.277369578507841,2
721,943,37,0.360715049864665,2
721,944,37,0.437778999850104,2
721,945,37,0.465435886787195,2
721,946,37,0.475880601042262,2
721,947,37,0.442214167683167,2
721,948,37,0.29537628924888,2
721,949,37,0.143381839261981,2
722,943,37,0.204699530216094,2
722,944,37,0.274356891242713,2
722,945,37,0.314002486708864,2
722,946,37,0.332926497562801,2
722,947,37,0.3569700299481,2
722,948,37,0.313905351115962,2
723,945,37,0.145925925018671,2
723,946,37,0.197369938408874,2
723,947,37,0.254940678040356,2
693,939,38,0.118880858060591,1
694,939,38,0.132227015302106,1
695,934,38,0.164499526993944,1
695,935,38,0.247663870147707,1
695,936,38,0.200689507254974,1
695,937,38,0.120004547754674,1
695,939,38,0.114739793908609,1
695,940,38,0.161102819673849,1
695,943,38,0.167364555909919,1
696,934,38,0.177377553801671,1
696,935,38,0.317823420305334,1
696,937,38,0.16678886735659,1
696,941,38,0.143813190542442,1
696,942,38,0.176937122557325,1
696,943,38,0.142936520618137,1
697,935,38,0.17852426726929,1
697,936,38,0.190917617146137,1
697,937,38,0.132687643872087,1
697,942,38,0.131954463286279,1
697,943,38,0.11831197653596,1
698,932,38,0.142191445397408,1
699,931,38,0.139170526102765,1
699,932,38,0.187134534397824,1
699,933,38,0.136473199762315,1
700,931,38,0.120540312731386,1
700,932,38,0.151450170335883,1
700,933,38,0.117333648702109,1
703,933,38,0.116166985223048,1
708,943,38,0.175835432049413,1
709,943,38,0.12134329480351,1
709,944,38,0.194953466774964,1
710,944,38,0.115418047190186,1
715,929,38,0.120145905480379,1
716,928,38,0.129063113074215,1
716,929,38,0.183570006733541,1
716,930,38,0.139924233766461,1
717,928,38,0.160581681565031,1
717,929,38,0.24457475102056,1
717,930,38,0.20566068737894,1
717,931,38,0.118762159025569,1
718,928,38,0.162482032035149,1
718,929,38,0.270865380149235,1
718,930,38,0.28129706919022,1
718,931,38,0.183647934257576,1
718,945,38,0.160026414097795,1
718,946,38,0.196260687152824,2
718,947,38,0.163390617267015,2
718,948,38,0.114719596582975,1
719,929,38,0.17570807701769,1
719,930,38,0.21432523408406,1
719,931,38,0.184630442878948,1
719,932,38,0.118092879716081,1
719,941,38,0.124735161831572,1
719,942,38,0.16495595122267,1
719,943,38,0.164480472024337,1
719,944,38,0.169438862471546,2
719,945,38,0.231945216090893,2
719,946,38,0.334191285891531,2
719,947,38,0.314516853119584,2
719,948,38,0.179745422308531,2
720,931,38,0.120966859050413,1
720,932,38,0.135846399609423,1
720,933,38,0.167314315798459,1
720,934,38,0.133103108159965,1
720,941,38,0.170041849800863,1
720,942,38,0.251002988591797,1
720,943,38,0.279543564465482,2
720,944,38,0.297395409415218,2
720,945,38,0.34439351447033,2
720,946,38,0.446692250416877,2
720,947,38,0.412582158952081,2
720,948,38,0.230232153124888,2
721,933,38,0.305966871769429,3
721,934,38,0.261957311403615,1
721,935,38,0.137266336374246,1
721,941,38,0.152157771568176,1
721,942,38,0.253491911506931,2
721,943,38,0.354183552730071,2
721,944,38,0.439092355975285,2
721,945,38,0.469472007283945,2
721,946,38,0.502080689623139,2
721,947,38,0.41917946521533,2
721,948,38,0.25840277052192,2
722,942,38,0.139093917587751,1
722,943,38,0.227808921569745,2
722,944,38,0.324671338282569,2
722,945,38,0.368679626746827,2
722,946,38,0.404618453558022,2
722,947,38,0.384963758813924,2
722,948,38,0.321828284999033,2
722,949,38,0.186251116329153,2
723,944,38,0.142972451837092,2
723,945,38,0.176817705133461,2
723,946,38,0.226816296620256,2
723,947,38,0.292700632342346,2
723,948,38,0.330015609529614,2
691,940,39,0.117008830953825,1
693,939,39,0.117927296976483,1
694,939,39,0.117014106989909,1
694,943,39,0.1326699432421,1
695,934,39,0.180957485607021,1
695,935,39,0.224207179008084,1
695,936,39,0.148238136055592,1
695,940,39,0.125413203129556,1
695,942,39,0.17082316243907,1
695,943,39,0.123133119383789,1
696,934,39,0.173987111774426,1
696,935,39,0.253671414502448,1
696,936,39,0.188934545967417,1
696,942,39,0.120373882057417,1
697,932,39,0.114794191253858,1
697,935,39,0.135293334416177,1
697,936,39,0.123950940307399,1
698,932,39,0.12510646287098,1
699,932,39,0.124266124579083,1
708,943,39,0.150337963086402,1
709,944,39,0.162547900048134,1
716,928,39,0.158321571384438,1
716,929,39,0.189088104526566,1
716,930,39,0.127204382049455,1
717,928,39,0.215426912815105,1
717,929,39,0.271797919527071,1
717,930,39,0.195451828424437,1
718,928,39,0.214973762555199,1
718,929,39,0.291890855018391,1
718,930,39,0.249104557750879,1
718,931,39,0.143740633269421,1
718,945,39,0.125602245386742,1
718,946,39,0.144295488546338,1
718,947,39,0.125208992268629,1
718,948,39,0.116964326176233,1
718,949,39,0.140665104645936,1
719,929,39,0.217577674792485,1
719,930,39,0.203981094266842,1
719,931,39,0.14862992884229,1
719,942,39,0.117389671254902,1
719,943,39,0.126906191795783,1
719,944,39,0.138243627843866,1
719,945,39,0.193139252304662,2
719,946,39,0.244789160647667,2
719,947,39,0.226873414421611,2
719,948,39,0.163329518884865,1
719,949,39,0.13021380712263,1
720,930,39,0.123651219061112,1
720,931,39,0.123622495284307,1
720,932,39,0.14259118756883,1
720,933,39,0.175524499226448,3
720,934,39,0.122922560791948,1
720,941,39,0.126347827012721,1
720,942,39,0.186280158081347,1
720,943,39,0.220519818628722,1
720,944,39,0.239134757404563,2
720,945,39,0.294059706262344,2
720,946,39,0.36695652989077,2
720,947,39,0.330908272438298,2
720,948,39,0.207249834158169,2
721,932,39,0.234919604986947,3
721,933,39,0.37518855940567,3
721,934,39,0.251611216626599,3
721,935,39,0.115727743442193,1
721,941,39,0.132959006424422,1
721,942,39,0.205157249900109,1
721,943,39,0.296109634710815,2
721,944,39,0.379952396022283,2
721,945,39,0.435965974843295,2
721,946,39,0.492642143713758,2
721,947,39,0.386177176452033,2
721,948,39,0.221501396877661,2
722,933,39,0.332501517566986,3
722,934,39,0.209987837794677,1
722,942,39,0.131288128193356,1
722,943,39,0.226195702875882,2
722,944,39,0.344190669725888,2
722,945,39,0.403436291722964,2
722,946,39,0.456727600800789,2
722,947,39,0.384007689257303,2
722,948,39,0.280406738101055,2
723,944,39,0.181190644005212,2
723,945,39,0.207589573196003,2
723,946,39,0.24193188090969,2
723,947,39,0.284365272602892,2
691,940,40,0.126313897861029,1
692,939,40,0.116801310793479,1
693,939,40,0.120988870013451,1
694,940,40,0.160692172124271,1
694,943,40,0.115037442426434,1
695,934,40,0.163873515891091,1
695,935,40,0.166352428469905,1
695,941,40,0.116361279962585,1
695,942,40,0.115827022424755,1
696,934,40,0.143982023697128,1
696,935,40,0.165515976543874,1
697,932,40,0.113785255344601,1
708,943,40,0.116758242793571,1
709,944,40,0.12541463990724,1
716,927,40,0.129267429926939,1
716,928,40,0.181542313008566,1
716,929,40,0.173454279237413,1
717,927,40,0.185263049026906,1
717,928,40,0.266810722864993,1
717,929,40,0.260259063735364,1
717,930,40,0.169824389965394,1
718,927,40,0.18247234391389,1
718,928,40,0.28052785139366,4
718,929,40,0.30122291450306,4
718,930,40,0.209300139466361,1
718,948,40,0.122434103486998,1
719,928,40,0.248054084834326,1
719,929,40,0.288123176411144,4
719,930,40,0.211327385670418,1
719,931,40,0.12552812179051,1
719,945,40,0.146050029635306,1
719,946,40,0.167435770620186,1
719,947,40,0.155640332243298,1
719,948,40,0.143625255310684,1
719,949,40,0.152506484578099,1
720,929,40,0.169294407430016,1
720,930,40,0.150127651808752,1
720,931,40,0.139047940701877,1
720,932,40,0.155772150707333,1
720,933,40,0.166112957671399,3
720,942,40,0.131838296277502,1
720,943,40,0.15603075891351,1
720,944,40,0.176926311394099,1
720,945,40,0.229515318829447,2
720,946,40,0.275410261268365,2
720,947,40,0.248265620906067,2
720,948,40,0.179001995849079,1
720,949,40,0.124125343919825,1
721,931,40,0.166281696611155,1
721,932,40,0.307206858017818,3
721,933,40,0.379479319304667,3
721,934,40,0.204571868985849,3
721,941,40,0.122589110600696,1
721,942,40,0.158173913035286,1
721,943,40,0.217085872857517,1
721,944,40,0.293412944321143,2
721,945,40,0.368420323705541,2
721,946,40,0.434645317061033,2
721,947,40,0.34326204026765,2
721,948,40,0.203148799574601,2
722,932,40,0.310718130692878,3
722,933,40,0.374423911033218,3
722,934,40,0.184826127288704,3
722,942,40,0.120473832321355,1
722,943,40,0.204522453255027,2
722,944,40,0.336712571635144,2
722,945,40,0.408555836808058,2
722,946,40,0.453607532069113,2
722,947,40,0.35543804807769,2
722,948,40,0.23807670018614,2
723,933,40,0.155356391997798,3
723,943,40,0.125915521806093,1
723,944,40,0.216093954520004,2
723,945,40,0.231197502852121,2
723,946,40,0.23511123815471,2
723,947,40,0.245865872422244,2
691,940,41,0.135834128114781,1
692,939,41,0.147492625090811,1
693,939,41,0.128328260173399,1
693,943,41,0.129787472787195,1
694,940,41,0.127356492054054,1
694,942,41,0.170499015972163,1
695,934,41,0.119509648503881,1
708,944,41,0.122769932605234,1
716,927,41,0.152860862260693,1
716,928,41,0.192598882573243,1
716,929,41,0.15993211672966,1
717,927,41,0.22401693551054,1
717,928,41,0.296114981408097,4
717,929,41,0.240676843826223,4
717,930,41,0.148565603598784,1
718,927,41,0.225357072229594,4
718,928,41,0.347856949514647,4
718,929,41,0.324291440130793,4
718,930,41,0.187205030719249,4
719,927,41,0.180924157075508,1
719,928,41,0.31657375347288,4
719,929,41,0.354765047278465,4
719,930,41,0.219389781203726,4
719,946,41,0.114748673665768,1
719,948,41,0.11744054731714,1
720,928,41,0.174227948689419,1
720,929,41,0.199891506797277,4
720,930,41,0.167610091794549,1
720,931,41,0.153890760991891,1
720,932,41,0.160530887940856,5
720,933,41,0.139303062955641,1
720,944,41,0.127712200522535,1
720,945,41,0.169684657447233,2
720,946,41,0.19607195109416,2
720,947,41,0.178230081150146,1
720,948,41,0.143994236307438,1
720,949,41,0.122342962319021,1
721,931,41,0.219788899201236,5
721,932,41,0.337569267994274,5
721,933,41,0.306736136673454,3
721,934,41,0.147508594521458,1
721,941,41,0.115630419419431,1
721,942,41,0.119995385352725,1
721,943,41,0.154647518863949,1
721,944,41,0.22660059153786,2
721,945,41,0.299671924770509,2
721,946,41,0.342496119993642,2
721,947,41,0.284622196717194,2
721,948,41,0.190804735883047,1
722,931,41,0.203080446642835,5
722,932,41,0.355712472615253,5
722,933,41,0.321964920201367,3
722,934,41,0.140668896796871,1
722,943,41,0.183070019876524,2
722,944,41,0.331057909300983,2
722,945,41,0.403966580456865,2
722,946,41,0.402126468657661,2
722,947,41,0.311547504722288,2
722,948,41,0.215252356103417,2
723,932,41,0.157664810883784,5
723,933,41,0.139085450020911,1
723,943,41,0.135774313411052,1
723,944,41,0.248779045167485,2
723,945,41,0.257874625177678,2
723,946,41,0.220411047491956,2
723,947,41,0.206907833962014,2
691,939,42,0.114407686280111,1
691,940,42,0.144058420228548,1
691,941,42,0.138810354201972,1
692,939,42,0.174248263783715,1
692,940,42,0.25214207065008,1
692,942,42,0.199542534696297,1
693,939,42,0.138567974517499,1
693,940,42,0.211757123520201,1
693,942,42,0.224383596464641,1
693,943,42,0.118274808746047,1
694,941,42,0.141341874042364,1
694,942,42,0.148404872928084,1
715,928,42,0.118608258937299,1
716,927,42,0.172350150918186,1
716,928,42,0.187249700372969,1
716,929,42,0.141897506592454,1
717,926,42,0.119912629313525,1
717,927,42,0.245196404682897,1
717,928,42,0.296855204559927,4
717,929,42,0.21278192286831,4
717,930,42,0.122499865508187,1
718,927,42,0.268596873063,4
718,928,42,0.399028634649481,4
718,929,42,0.323869545673938,4
718,930,42,0.160340008492534,4
719,927,42,0.212305171768421,4
719,928,42,0.355894048339231,4
719,929,42,0.35260674810668,4
719,930,42,0.196155343084139,4
720,928,42,0.186839547451774,4
720,929,42,0.195108450334929,4
720,930,42,0.168505110076485,1
720,931,42,0.173476125324323,1
720,932,42,0.167489202262402,5
720,933,42,0.12211298367472,1
720,945,42,0.12069640331678,1
720,946,42,0.1390693981522,1
720,947,42,0.133722229796056,1
720,948,42,0.118223167187503,1
720,949,42,0.125101328157291,1
721,930,42,0.161196763735995,1
721,931,42,0.294646429739357,5
721,932,42,0.351256695266237,5
721,933,42,0.229481707653145,5
721,944,42,0.175422064043729,1
721,945,42,0.228382596278944,2
721,946,42,0.248798688980405,2
721,947,42,0.229406665461344,1
721,948,42,0.1804479712652,1
722,931,42,0.276648480986815,5
722,932,42,0.360442910039157,5
722,933,42,0.238569585592804,5
722,943,42,0.155263908267068,1
722,944,42,0.297375270973916,2
722,945,42,0.355394944747183,2
722,946,42,0.323283081287982,2
722,947,42,0.272208013563935,2
723,932,42,0.157397476019709,5
723,943,42,0.127119718157921,1
723,944,42,0.241232688359906,1
723,945,42,0.251490668623574,2
723,946,42,0.198051795411526,2
691,939,43,0.117689463162386,1
691,940,43,0.148835658918965,1
691,941,43,0.155720944892839,1
692,939,43,0.183099367827241,1
692,940,43,0.250288297686015,1
692,941,43,0.243738876160975,1
692,942,43,0.160807632521072,1
693,939,43,0.148180500072122,1
693,940,43,0.201579225947093,1
693,941,43,0.208680370102625,1
693,942,43,0.169415803367411,1
694,941,43,0.12196474825912,1
694,942,43,0.132263829786031,1
694,943,43,0.114836258220135,1
715,927,43,0.119052282125854,1
715,928,43,0.124818930681271,1
716,927,43,0.184990379242416,1
716,928,43,0.183995964209256,1
716,929,43,0.129710251875136,1
717,926,43,0.121264236700314,1
717,927,43,0.248228617992282,1
717,928,43,0.285640848541115,4
717,929,43,0.191598520222622,1
718,926,43,0.126739007402373,1
718,927,43,0.302540298316502,4
718,928,43,0.422805279691623,4
718,929,43,0.295127114312576,4
718,930,43,0.131376007169379,1
719,927,43,0.261982513897409,4
719,928,43,0.38142718943014,4
719,929,43,0.300796474175829,4
719,930,43,0.157683594985467,1
720,928,43,0.205866782538469,4
720,929,43,0.17813833936199,1
720,930,43,0.165450520721208,1
720,931,43,0.191517189184239,1
720,932,43,0.16597787701541,1
720,949,43,0.138205129268066,1
721,930,43,0.189767299957443,1
721,931,43,0.344571015398582,1
721,932,43,0.311344118241998,5
721,933,43,0.156922173474371,1
721,944,43,0.138239305733949,1
721,945,43,0.166697631973683,1
721,946,43,0.171726683618445,1
721,947,43,0.173709248391916,1
721,948,43,0.160841797210089,1
722,930,43,0.153537890748179,1
722,931,43,0.310502543379145,1
722,932,43,0.295176859795653,5
722,933,43,0.153039917735292,1
722,943,43,0.126359073919998,1
722,944,43,0.237755568596996,1
722,945,43,0.273103102507069,2
722,946,43,0.23694100986534,2
722,947,43,0.224633407351723,1
723,931,43,0.133318483490105,1
723,932,43,0.129595286106718,1
723,944,43,0.199537258660213,1
723,945,43,0.213815978833297,1
723,946,43,0.172448134445459,1
691,939,44,0.118376843515314,1
691,940,44,0.150159084264797,1
691,941,44,0.174138797811839,1
692,939,44,0.17390654623235,1
692,940,44,0.223618265033947,1
692,941,44,0.226973611999741,1
692,942,44,0.140586906253978,1
693,939,44,0.146609101030344,1
693,940,44,0.178286091926073,1
693,941,44,0.172734689155268,1
693,942,44,0.135490761802139,1
694,942,44,0.114623179378914,1
694,943,44,0.114582820058246,1
715,927,44,0.122991585005091,1
715,928,44,0.123029883374165,1
716,927,44,0.18955835479628,1
716,928,44,0.188501958115999,1
716,929,44,0.123814387543128,1
717,926,44,0.116687887794541,1
717,927,44,0.241341011975754,1
717,928,44,0.275617487007055,4
717,929,44,0.176235833725346,1
718,926,44,0.127741042068003,1
718,927,44,0.305931376294525,4
718,928,44,0.40019143531641,4
718,929,44,0.245002109943359,4
718,948,44,0.116017442575294,1
719,926,44,0.130477844464152,1
719,927,44,0.303074308540141,4
719,928,44,0.386294450486239,4
719,929,44,0.2407236922002,4
719,930,44,0.12476016411864,1
720,927,44,0.210491133951113,1
720,928,44,0.229280393901317,4
720,929,44,0.164255157019074,1
720,930,44,0.156874135636901,1
720,931,44,0.193022390460776,1
720,932,44,0.149744102828436,1
721,930,44,0.198953597168427,1
721,931,44,0.334701294861734,1
721,932,44,0.239896508667915,1
721,945,44,0.115819049486298,1
721,946,44,0.118865230159066,1
721,947,44,0.133718720289911,1
721,948,44,0.144782403081808,1
722,931,44,0.27892082733145,1
722,932,44,0.205457960403161,1
722,944,44,0.1631639243684,1
722,945,44,0.184635271394114,1
722,946,44,0.16937513784822,1
722,947,44,0.194684636248874,1
722,948,44,0.230790258816892,1
723,944,44,0.143285904909436,1
723,945,44,0.162618019509839,1
723,946,44,0.152347343784344,1
723,947,44,0.188850906663247,1
691,939,45,0.136028870375236,1
691,940,45,0.161177367237267,1
691,941,45,0.178185859017344,1
691,942,45,0.121094473173194,1
692,939,45,0.160979268569928,1
692,940,45,0.191661184927985,1
692,941,45,0.201482537875109,1
692,942,45,0.141533389441465,1
693,939,45,0.135202628992252,1
693,940,45,0.152190664355637,1
693,941,45,0.146964679953296,1
693,942,45,0.128563550184383,1
694,943,45,0.115131940001295,1
715,927,45,0.1177660716774,1
715,928,45,0.116052808504669,1
716,927,45,0.187272429724848,1
716,928,45,0.194563263865211,1
716,929,45,0.123355501949354,1
717,926,45,0.114307877338568,1
717,927,45,0.23405059002571,1
717,928,45,0.265470915898195,4
717,929,45,0.16571839732113,1
718,926,45,0.129199924929544,1
718,927,45,0.283690552381193,4
718,928,45,0.339788359349687,4
718,929,45,0.199301650673839,4
718,948,45,0.120051608112245,1
719,926,45,0.141016443897035,1
719,927,45,0.312367857672143,4
719,928,45,0.363967325696962,4
719,929,45,0.213056842034255,4
719,930,45,0.125178513738751,1
719,932,45,0.115267491731933,1
719,948,45,0.116485325694889,1
720,927,45,0.226842464817083,1
720,928,45,0.259043926674781,4
720,929,45,0.186007688503583,1
720,930,45,0.169470860217171,1
720,931,45,0.191439108560943,1
720,932,45,0.134868224874833,1
720,948,45,0.123295581253829,1
721,929,45,0.157125171318073,1
721,930,45,0.208096520180979,1
721,931,45,0.281080657495848,1
721,932,45,0.172331979213548,1
721,947,45,0.122180865531835,1
721,948,45,0.15312302708048,1
721,949,45,0.172515627665988,1
722,931,45,0.215316516470795,1
722,932,45,0.135659677394889,1
722,945,45,0.118364242268417,1
722,946,45,0.131915587850759,1
722,947,45,0.186090515203981,1
722,948,45,0.254945271018197,1
723,945,45,0.117046764240045,1
723,946,45,0.141026937084871,1
723,947,45,0.219474291995999,1
690,939,46,0.139735650807059,1
690,940,46,0.148423668806633,1
690,941,46,0.11630860203981,1
691,939,46,0.163178751443019,1
691,940,46,0.177474147658726,1
691,941,46,0.163979990538937,1
691,942,46,0.11988176214706,1
692,939,46,0.143797303549858,1
692,940,46,0.16007997528554,1
692,941,46,0.166538597171724,1
692,942,46,0.14128780644937,1
693,940,46,0.124497174918214,1
693,941,46,0.123244045687081,1
693,942,46,0.122717702203376,1
716,927,46,0.171687843513523,1
716,928,46,0.184663005914154,1
716,929,46,0.115827140193418,1
717,926,46,0.115061184588812,1
717,927,46,0.220555243442429,1
717,928,46,0.244021709381047,1
717,929,46,0.150806870793362,1
718,926,46,0.136975023810468,1
718,927,46,0.246094744041118,1
718,928,46,0.267317198775319,4
718,929,46,0.16619693850469,1
718,948,46,0.127587554170052,1
719,926,46,0.151296929752123,1
719,927,46,0.277604668312099,1
719,928,46,0.311894097896284,4
719,929,46,0.204665895486059,1
719,930,46,0.149232080014102,1
719,931,46,0.141483632181521,1
719,932,46,0.115754912672652,1
719,948,46,0.14384797940537,1
720,927,46,0.216781911939378,1
720,928,46,0.278058690060108,1
720,929,46,0.231215097490312,1
720,930,46,0.191544652836355,1
720,931,46,0.176764721012162,1
720,932,46,0.114192346280569,1
720,948,46,0.153612885832515,1
721,929,46,0.224499951903278,1
721,930,46,0.22108188134779,1
721,931,46,0.208258852505491,1
721,932,46,0.117940816818948,1
721,947,46,0.119217911972918,1
721,948,46,0.177237326655128,1
721,949,46,0.192967427825946,1
722,931,46,0.153893469671131,1
722,938,46,0.121523304204275,1
722,939,46,0.130462522761149,1
722,947,46,0.176729684835042,1
722,948,46,0.26236863023457,1
723,938,46,0.114428872862511,1
723,946,46,0.124178363371722,1
723,947,46,0.219729590902757,1
689,940,47,0.127743903846504,1
690,939,47,0.19589456793457,1
690,940,47,0.219554680885081,1
690,941,47,0.139140177118416,1
691,939,47,0.18199764198873,1
691,940,47,0.194317822195511,1
691,941,47,0.147318021271658,1
692,939,47,0.126506119872105,1
692,940,47,0.137172121444175,1
692,941,47,0.139252787513582,1
692,942,47,0.133946991288605,1
693,942,47,0.113920053355799,1
716,927,47,0.14822136579804,1
716,928,47,0.160503542057403,1
717,926,47,0.117857342390905,1
717,927,47,0.196903386075165,1
717,928,47,0.207130675825363,1
717,929,47,0.130684575574459,1
718,926,47,0.149918023589346,1
718,927,47,0.204043087690829,1
718,928,47,0.198612963088757,1
718,929,47,0.141033685229238,1
718,930,47,0.122370461301736,1
718,931,47,0.118995988705137,1
718,948,47,0.133699170691921,1
719,926,47,0.161475298399882,1
719,927,47,0.219510023008228,1
719,928,47,0.240898555110411,1
719,929,47,0.19328812367104,1
719,930,47,0.166249227790879,1
719,931,47,0.157206561240788,1
719,948,47,0.164275213022312,1
720,927,47,0.188286959645579,1
720,928,47,0.270774462741717,1
720,929,47,0.26398594727789,1
720,930,47,0.194021810662096,1
720,931,47,0.142009009962192,1
720,948,47,0.181855330336859,1
720,949,47,0.210660697271507,1
721,928,47,0.227372306030066,1
721,929,47,0.275423545573505,1
721,930,47,0.21547307813084,1
721,931,47,0.138503166422477,1
721,947,47,0.125959343525442,1
721,948,47,0.20701641666892,1
721,949,47,0.2075453863938,1
722,930,47,0.172038499706379,1
722,938,47,0.154050726166284,1
722,939,47,0.163306718871788,1
722,947,47,0.168094945378423,1
722,948,47,0.253011250487444,1
723,938,47,0.12825922418339,1
723,939,47,0.120364637217403,1
723,947,47,0.1990150017491,1
689,939,48,0.134176381089594,1
689,940,48,0.17663572899603,1
689,941,48,0.116744793612303,1
690,939,48,0.235432393297588,1
690,940,48,0.295683194383584,1
690,941,48,0.169949118755941,1
691,939,48,0.179520213295064,1
691,940,48,0.208342821561916,1
691,941,48,0.142252084481774,1
692,940,48,0.123245164489375,1
692,941,48,0.123615276065291,1
692,942,48,0.117255073450431,1
711,925,48,0.146421966625492,1
712,924,48,0.1162636497413,1
712,925,48,0.138018030193812,1
716,927,48,0.122555711407987,1
716,928,48,0.127103430751885,1
717,926,48,0.116768312014222,1
717,927,48,0.161703604729175,1
717,928,48,0.159636823585087,1
718,926,48,0.158284568470653,1
718,927,48,0.165857717648972,1
718,928,48,0.146376154615745,1
718,929,48,0.119558922912308,1
718,930,48,0.127921239898628,1
718,931,48,0.128628228733877,1
718,948,48,0.129368192794649,1
719,926,48,0.164994343806673,1
719,927,48,0.168537331582569,1
719,928,48,0.183932416238923,1
719,929,48,0.180192213060658,1
719,930,48,0.16702102472115,1
719,931,48,0.151998830981148,1
719,948,48,0.172146140263985,1
719,949,48,0.169968373932274,1
720,927,48,0.159517229508229,1
720,928,48,0.25601343278787,1
720,929,48,0.280963925197491,1
720,930,48,0.187980042734008,1
720,948,48,0.207447332205329,1
720,949,48,0.21531656357826,1
721,928,48,0.262444661683137,1
721,929,48,0.302847533203461,1
721,930,48,0.201675395836963,1
721,938,48,0.114624839917057,1
721,939,48,0.130236359821515,1
721,947,48,0.13110484482377,1
721,948,48,0.230346906909714,1
721,949,48,0.215870806458132,1
722,929,48,0.229237031479752,1
722,930,48,0.156611805940986,1
722,938,48,0.189831366109891,1
722,939,48,0.203033692483787,1
722,947,48,0.154865555765864,1
722,948,48,0.232835994700975,1
723,938,48,0.140366254887753,1
723,939,48,0.135581196358141,1
723,947,48,0.16913460713175,1
689,939,49,0.142011553765304,1
689,940,49,0.216360771201963,1
689,941,49,0.148911077970486,1
690,939,49,0.23274472398747,1
690,940,49,0.336109831620019,1
690,941,49,0.200370707485348,1
691,939,49,0.166919201935476,1
691,940,49,0.224161861626721,1
691,941,49,0.154142126425319,1
692,940,49,0.130412977484799,1
692,941,49,0.12541655953644,1
696,930,49,0.117349147058106,1
698,928,49,0.115400393667664,1
711,925,49,0.159976574399787,1
712,924,49,0.136015892268619,1
712,925,49,0.165913952185358,1
713,924,49,0.118551765309855,1
713,925,49,0.11990785968269,1
717,927,49,0.126895792822876,1
717,928,49,0.120404761000747,1
718,926,49,0.144632801549723,1
718,927,49,0.135650526769806,1
718,928,49,0.118067853875281,1
718,930,49,0.119581475611193,1
718,931,49,0.114938999601377,1
718,948,49,0.120123894517341,1
719,926,49,0.150458346213299,1
719,927,49,0.135349851597353,1
719,928,49,0.147582435472901,1
719,929,49,0.163750200324495,1
719,930,49,0.151125894323447,1
719,931,49,0.126710189410638,1
719,948,49,0.169867316642907,1
720,927,49,0.138310991518866,1
720,928,49,0.23721887324785,1
720,929,49,0.274223341579338,1
720,930,49,0.174910370981651,1
720,947,49,0.113795972292897,1
720,948,49,0.216836109077901,1
720,949,49,0.207133125413545,1
721,927,49,0.158707334415612,1
721,928,49,0.295203499067131,1
721,929,49,0.306471910902071,1
721,930,49,0.179534004005454,1
721,938,49,0.116188489780836,1
721,939,49,0.133498080700552,1
721,947,49,0.126483673165016,1
721,948,49,0.228009905569318,1
721,949,49,0.210686417947417,1
722,928,49,0.277382485953261,1
722,929,49,0.227197419566123,1
722,930,49,0.133398436635136,1
722,937,49,0.129008044447589,1
722,938,49,0.199471449531559,1
722,939,49,0.217634250857992,1
722,947,49,0.135447175620116,1
722,948,49,0.200261135521676,1
723,937,49,0.119470985051953,1
723,938,49,0.143315712157937,1
723,939,49,0.144052932208872,1
723,947,49,0.142702950029626,1
689,939,50,0.133572769586365,1
689,940,50,0.237151368250454,1
689,941,50,0.201137028172808,1
690,939,50,0.194667218263677,1
690,940,50,0.320323201491159,1
690,941,50,0.22736344982664,1
690,942,50,0.120663510529319,1
691,939,50,0.154499860514796,1
691,940,50,0.230110003468052,1
691,941,50,0.168706612258173,1
692,940,50,0.137361234362559,1
692,941,50,0.122603525484997,1
695,930,50,0.121800131222555,1
696,929,50,0.125457825675811,1
696,930,50,0.14326039621712,1
698,927,50,0.122758179292708,1
698,928,50,0.118922595274612,1
711,925,50,0.151269254116415,1
712,924,50,0.136192851461024,1
712,925,50,0.168097595173331,1
713,924,50,0.121764729962581,1
713,925,50,0.124317860352558,1
718,926,50,0.121640719560876,1
718,927,50,0.114900819000966,1
719,926,50,0.126093929553047,1
719,927,50,0.11440838111522,1
719,928,50,0.123580487202362,1
719,929,50,0.135802507228876,1
719,930,50,0.117118450024962,1
719,948,50,0.147650705966603,1
720,927,50,0.123464944367497,1
720,928,50,0.206783776452844,1
720,929,50,0.233964242042301,1
720,930,50,0.143877303802354,1
720,948,50,0.196375923789166,1
720,949,50,0.178505942465392,1
721,927,50,0.160701157873226,1
721,928,50,0.298106520153657,1
721,929,50,0.284909528700176,1
721,930,50,0.149488886359741,1
721,939,50,0.117521348396542,1
721,948,50,0.201570322636202,1
721,949,50,0.190121359664648,1
722,927,50,0.204141400970357,1
722,928,50,0.305216496958883,1
722,929,50,0.215339363591337,1
722,937,50,0.144663762931117,1
722,938,50,0.189479544007276,1
722,939,50,0.204584281802886,1
722,948,50,0.165320610109507,1
723,928,50,0.252936632262829,1
723,937,50,0.141121316891069,1
723,938,50,0.15141253147132,1
723,939,50,0.148830747965735,1
688,940,51,0.125711004746642,1
689,939,51,0.118300340992096,1
689,940,51,0.237503213906802,1
689,941,51,0.261724223666621,1
690,939,51,0.150579271076045,1
690,940,51,0.270626592408971,1
690,941,51,0.252846044607566,1
690,942,51,0.144260181501294,1
691,939,51,0.142834214980946,1
691,940,51,0.215377167332028,1
691,941,51,0.176269185810591,1
691,942,51,0.113949731058771,1
692,940,51,0.136181628107479,1
692,941,51,0.115253300608091,1
695,930,51,0.130369744608763,1
696,929,51,0.132281624630948,1
696,930,51,0.159790441028567,1
697,930,51,0.125979046222693,1
698,926,51,0.120294129119112,1
698,927,51,0.13985602215709,1
698,928,51,0.129865953823944,1
699,927,51,0.11669648490691,1
699,928,51,0.134821859352372,1
699,929,51,0.126869224212596,1
700,929,51,0.113944643452548,1
711,925,51,0.139562742856648,1
712,924,51,0.133329094446605,1
712,925,51,0.161641257999201,1
713,924,51,0.11961872583917,1
713,925,51,0.126878268845883,1
719,948,51,0.120325620459488,1
720,927,51,0.113895510366516,1
720,928,51,0.169479292453412,1
720,929,51,0.178669523137726,1
720,948,51,0.157400773542262,1
721,927,51,0.155940701217229,1
721,928,51,0.262185664840373,1
721,929,51,0.241873726744104,1
721,930,51,0.124239979935988,1
721,948,51,0.161261383401157,1
722,927,51,0.215254475939344,1
722,928,51,0.292787710491464,1
722,929,51,0.200323458697918,1
722,936,51,0.117090056000412,1
722,937,51,0.17391202247516,1
722,938,51,0.193107984724745,1
722,939,51,0.178967831160062,1
723,927,51,0.255111018633923,1
723,928,51,0.288361186878234,1
723,929,51,0.162021332803971,1
723,936,51,0.124584253067332,1
723,937,51,0.176221477725376,1
723,938,51,0.176531939473691,1
723,939,51,0.145055967908134,1
724,928,51,0.150541585104017,1
688,940,52,0.131597942214026,1
689,940,52,0.228082380404274,1
689,941,52,0.311018723427268,1
689,942,52,0.182398161433326,1
690,939,52,0.124047381065192,1
690,940,52,0.229449038626143,1
690,941,52,0.27954747438508,1
690,942,52,0.171687348885141,1
691,939,52,0.13108907559985,1
691,940,52,0.191618811763186,1
691,941,52,0.179885637678209,1
691,942,52,0.119525935909917,1
692,940,52,0.124190199122313,1
695,929,52,0.116797919055997,1
695,930,52,0.146057861251368,1
696,929,52,0.137997868198777,1
696,930,52,0.175067757022333,1
696,931,52,0.116080649016504,1
697,927,52,0.121884147386445,1
697,929,52,0.123125440866988,1
697,930,52,0.145279375061063,1
698,926,52,0.143720094414666,1
698,927,52,0.14764926918892,1
698,928,52,0.140699128012558,1
698,929,52,0.134972414810625,1
698,930,52,0.115774002972858,1
699,927,52,0.133958803485462,1
699,928,52,0.178352289691313,1
699,929,52,0.176455130751951,1
700,928,52,0.159867885701085,1
700,929,52,0.158236483525719,1
705,928,52,0.126416945440793,1
706,928,52,0.1498702566198,1
711,925,52,0.120661520238922,1
712,924,52,0.12185551782457,1
712,925,52,0.140672900931399,1
713,925,52,0.12252790622675,1
720,928,52,0.132042436477232,1
720,929,52,0.125804407072941,1
720,948,52,0.120030892604495,1
721,927,52,0.154457463796264,1
721,928,52,0.205273935091001,1
721,929,52,0.182647430584559,1
721,948,52,0.122645910426663,1
722,927,52,0.224094709935313,1
722,928,52,0.258358866364507,1
722,929,52,0.183991724537402,1
722,937,52,0.17702880546115,1
722,938,52,0.184226472812539,1
722,939,52,0.142590327857593,1
723,926,52,0.122984012480087,1
723,927,52,0.272472616195038,1
723,928,52,0.281276553889197,1
723,929,52,0.169049483942431,1
723,930,52,0.121161671972066,1
723,931,52,0.115176268125893,1
723,936,52,0.117026637575609,1
723,937,52,0.18438726236757,1
723,938,52,0.182246993578028,1
723,939,52,0.125022470260822,1
724,927,52,0.146530985076449,1
724,928,52,0.146262696286208,1
688,940,53,0.12660856683169,1
688,941,53,0.171779396871819,1
689,940,53,0.208287635166627,1
689,941,53,0.322503758940172,1
689,942,53,0.219921153409323,1
690,940,53,0.201217793921611,1
690,941,53,0.290357224386706,1
690,942,53,0.204075026552123,1
691,939,53,0.115988977889546,1
691,940,53,0.164261080782802,1
691,941,53,0.178456173428582,1
691,942,53,0.130705561950132,1
695,930,53,0.148403471480999,1
695,931,53,0.131489147523528,1
696,929,53,0.126983930889957,1
696,930,53,0.16344698134893,1
696,931,53,0.130117825662621,1
697,927,53,0.11562629751624,1
697,929,53,0.129858192869079,1
697,930,53,0.146683342395239,1
698,926,53,0.144573116391523,1
698,927,53,0.133505959424079,1
698,928,53,0.136547382242879,1
698,929,53,0.150488824743177,1
698,930,53,0.123388924695796,1
699,927,53,0.136756633602565,1
699,928,53,0.193362200159807,1
699,929,53,0.194530429962081,1
699,930,53,0.115378206051632,1
700,927,53,0.13486571640232,1
700,928,53,0.202345640849483,1
700,929,53,0.181502460093147,1
701,928,53,0.131976486026183,1
705,927,53,0.119635166344467,1
705,928,53,0.151388907077605,1
705,929,53,0.12416612720768,1
706,927,53,0.13809220089751,1
706,928,53,0.186940274988885,1
706,929,53,0.140239736013535,1
707,928,53,0.128086104249385,1
721,927,53,0.157688929905882,1
721,928,53,0.156513975512974,1
721,929,53,0.130902577145776,1
722,928,53,0.222404941610768,1
722,929,53,0.165075427530865,1
722,937,53,0.156020030188348,1
722,938,53,0.161541684594983,1
723,927,53,0.245698640921369,1
723,928,53,0.241390945888691,1
723,929,53,0.166523051708263,1
723,930,53,0.128744266197125,1
723,931,53,0.123334433135617,1
723,937,53,0.162488473980993,1
723,938,53,0.161073448169399,1
724,931,53,0.156832834166931,1
724,932,53,0.130833199626645,1
688,940,54,0.11719280915852,1
688,941,54,0.161792225647772,1
689,940,54,0.180599351104091,1
689,941,54,0.300147239092714,1
689,942,54,0.255969505076724,1
690,940,54,0.178579736309369,1
690,941,54,0.279092651810166,1
690,942,54,0.234479032420205,1
690,943,54,0.119950939459464,1
691,940,54,0.142442021780796,1
691,941,54,0.175582017441256,1
691,942,54,0.146376213500076,1
694,931,54,0.126233838724202,1
695,930,54,0.146044894921617,1
695,931,54,0.164419279427256,1
696,930,54,0.145655598830567,1
696,931,54,0.151595402650586,1
697,929,54,0.143164520748907,1
697,930,54,0.138968223094171,1
698,927,54,0.114439283612283,1
698,928,54,0.138847675091146,1
698,929,54,0.179177471156335,1
698,930,54,0.132105289612455,1
699,927,54,0.131853111575256,1
699,928,54,0.189527994035064,1
699,929,54,0.191954393567231,1
699,930,54,0.114214604557798,1
700,927,54,0.155926192117998,1
700,928,54,0.236000485772179,1
700,929,54,0.188840837442596,1
701,927,54,0.135080973963798,1
701,928,54,0.182970988208154,1
701,929,54,0.13310938522968,1
704,927,54,0.117367742729928,1
705,927,54,0.146523589204439,1
705,928,54,0.160100855669416,1
705,929,54,0.143453772361089,1
706,927,54,0.159314902945903,1
706,928,54,0.195151683210965,1
706,929,54,0.177505933420759,1
707,927,54,0.119237885538093,1
707,928,54,0.128790655273318,1
707,929,54,0.113872286386254,1
714,924,54,0.116542514157442,1
714,925,54,0.124442895341628,1
715,924,54,0.12695159161521,1
715,925,54,0.130126057692136,1
716,924,54,0.115628605782027,1
721,927,54,0.156292323113118,1
721,928,54,0.124216049343751,1
722,928,54,0.185513660740893,1
722,929,54,0.140662619727155,1
723,929,54,0.153640867666746,1
723,930,54,0.123297371337501,1
723,931,54,0.114000901542666,1
724,930,54,0.114205265502855,1
724,931,54,0.143650163382821,1
724,932,54,0.139813142587042,1
725,932,54,0.122635947197808,1
688,941,55,0.139257274499627,1
689,940,55,0.154949442384226,1
689,941,55,0.255063157449447,1
689,942,55,0.263832989338921,1
690,939,55,0.114297466588795,1
690,940,55,0.160409397788531,1
690,941,55,0.249661132450269,1
690,942,55,0.243830382411806,1
690,943,55,0.130881437670841,1
691,940,55,0.130384713005778,1
691,941,55,0.174008898977005,1
691,942,55,0.162200729807691,1
694,931,55,0.126355458422056,1
695,930,55,0.135410737995911,1
695,931,55,0.18220023941898,1
695,932,55,0.115736481876957,1
696,930,55,0.13360920721057,1
696,931,55,0.169276459485837,1
697,929,55,0.160624832003003,1
697,930,55,0.137095642474691,1
697,931,55,0.121577477789066,1
698,928,55,0.141514016496469,1
698,929,55,0.204339794059353,1
698,930,55,0.13998325942015,1
699,928,55,0.159050618290189,1
699,929,55,0.169748594054152,1
700,928,55,0.218544720388459,1
700,929,55,0.16898955147004,1
701,927,55,0.144753396660213,1
701,928,55,0.20641092086709,1
701,929,55,0.144739641280422,1
702,927,55,0.114895955155201,1
702,928,55,0.141442318934685,1
703,928,55,0.115265230573612,1
704,927,55,0.137481876580514,1
704,928,55,0.128156247264823,1
705,926,55,0.123772650329107,1
705,927,55,0.167368230292192,1
705,928,55,0.161954357765557,1
705,929,55,0.149574256863251,1
706,926,55,0.122250572803221,1
706,927,55,0.171557685587631,1
706,928,55,0.185082898303745,1
706,929,55,0.194562427707706,1
706,930,55,0.132831745607629,1
707,926,55,0.117164285588441,1
707,927,55,0.134517533351379,1
707,928,55,0.126644509827512,1
707,929,55,0.122649667246999,1
708,926,55,0.118032205301116,1
714,924,55,0.132419449296775,1
714,925,55,0.141696027964499,1
715,923,55,0.130348934886083,1
715,924,55,0.149712375950735,1
715,925,55,0.157438223976965,1
716,924,55,0.138708519639432,1
716,925,55,0.13766342875076,1
717,925,55,0.115542363790414,1
724,932,55,0.122408217934961,1
725,932,55,0.124170272664603,1
688,941,56,0.125186522007807,1
688,942,56,0.132189882842792,1
689,938,56,0.12507372318278,1
689,939,56,0.129586618333151,1
689,940,56,0.143497499865508,1
689,941,56,0.215471240939703,1
689,942,56,0.242807043395114,1
689,943,56,0.141581603931928,1
690,939,56,0.122600357507974,1
690,940,56,0.153080441932088,1
690,941,56,0.228431046306732,1
690,942,56,0.239351852157178,1
690,943,56,0.141412605901114,1
691,935,56,0.12916990569745,1
691,940,56,0.126500290323307,1
691,941,56,0.178725533913653,1
691,942,56,0.178142496595779,1
691,943,56,0.125085358726644,1
692,935,56,0.11895625355838,1
694,931,56,0.117933797806658,1
695,930,56,0.120210077624623,1
695,931,56,0.179903067440272,1
695,932,56,0.135813695251822,1
696,930,56,0.127483222911865,1
696,931,56,0.179316838591641,1
696,932,56,0.127258579187978,1
697,929,56,0.15699602620268,1
697,930,56,0.14103622903235,1
697,931,56,0.138377519036362,1
698,928,56,0.12445755754012,1
698,929,56,0.196043733722604,1
698,930,56,0.147532112923377,1
699,929,56,0.145536499382091,1
700,928,56,0.172372208988688,1
700,929,56,0.145550502076073,1
701,928,56,0.199249785354836,1
701,929,56,0.151559424324166,1
702,927,56,0.12451598257363,1
702,928,56,0.164167336927382,1
702,929,56,0.129961052018984,1
703,927,56,0.120366815937661,1
703,928,56,0.133399166800844,1
704,926,56,0.116659799968513,1
704,927,56,0.150104545597153,1
704,928,56,0.141166422288841,1
705,926,56,0.132112391062809,1
705,927,56,0.177359276105238,1
705,928,56,0.169408701917057,1
705,929,56,0.149345962310825,1
706,926,56,0.130253436277591,1
706,927,56,0.168478600350536,1
706,928,56,0.172490542940857,1
706,929,56,0.187460894915588,1
706,930,56,0.140416400784283,1
707,926,56,0.131448058037151,1
707,927,56,0.144193689314397,1
707,928,56,0.125746099808094,1
707,929,56,0.121787188446536,1
708,926,56,0.126147231649735,1
708,927,56,0.118793921233869,1
714,923,56,0.136346704441829,1
714,924,56,0.146190798517698,1
714,925,56,0.146484654884587,1
715,923,56,0.181324346767848,1
715,924,56,0.175102074810611,1
715,925,56,0.174759167795754,1
716,924,56,0.173965147918853,1
716,925,56,0.166520743442476,1
717,925,56,0.129378226684702,1
688,938,57,0.146982192153423,1
688,939,57,0.166856337023387,1
688,940,57,0.133472442462707,1
688,941,57,0.120270469394798,1
688,942,57,0.116786966570376,1
689,937,57,0.125013201867076,1
689,938,57,0.156569303230658,1
689,939,57,0.161749593391916,1
689,940,57,0.153352534650131,1
689,941,57,0.186805159002298,1
689,942,57,0.201659661943641,1
689,943,57,0.13559863789707,1
690,936,57,0.137890745823287,1
690,937,57,0.135825766539737,1
690,938,57,0.131834504126567,1
690,939,57,0.138508442458561,1
690,940,57,0.160673894427837,1
690,941,57,0.216755202006703,1
690,942,57,0.231435607534142,1
690,943,57,0.159493793544374,1
691,935,57,0.15373736730887,1
691,936,57,0.159751377163187,1
691,937,57,0.122416932815993,1
691,940,57,0.130116094463281,1
691,941,57,0.182468645977885,1
691,942,57,0.196245789417006,1
691,943,57,0.150045095976278,1
692,934,57,0.114258555822676,1
692,935,57,0.145174619835691,1
692,936,57,0.123111037759554,1
695,931,57,0.157447786792367,1
695,932,57,0.158418883630335,1
696,930,57,0.126089289467741,1
696,931,57,0.17643388528522,1
696,932,57,0.1557750242627,1
697,930,57,0.157683182795148,1
697,931,57,0.165637525580531,1
697,932,57,0.123932097321385,1
698,929,57,0.173170810066564,1
698,930,57,0.171907493846116,1
698,931,57,0.147852302363221,1
699,929,57,0.131498498355337,1
699,930,57,0.128618006413964,1
700,928,57,0.126928768048401,1
700,929,57,0.12732319885314,1
701,928,57,0.16844720322509,1
701,929,57,0.150836042091085,1
702,927,57,0.128249260954535,1
702,928,57,0.174106552752023,1
702,929,57,0.156359415920194,1
703,927,57,0.128029481076413,1
703,928,57,0.147541028011135,1
703,929,57,0.126695173906158,1
704,927,57,0.154218558287338,1
704,928,57,0.152299600368531,1
704,929,57,0.115783954424847,1
705,926,57,0.131490737400473,1
705,927,57,0.174795122568442,1
705,928,57,0.177040605881141,1
705,929,57,0.141317484152342,1
706,926,57,0.134184624895975,1
706,927,57,0.15925522956457,1
706,928,57,0.160247289224478,1
706,929,57,0.153722669779779,1
706,930,57,0.120223350152897,1
707,926,57,0.140397593128867,1
707,927,57,0.148812116963313,1
707,928,57,0.123606254985736,1
708,926,57,0.125134103176089,1
708,927,57,0.130747911561199,1
713,924,57,0.114225721919546,1
714,923,57,0.151169186083814,1
714,924,57,0.143632427422235,1
714,925,57,0.131127974589103,1
715,924,57,0.181608169244686,1
715,925,57,0.166192298419384,1
716,924,57,0.198091365682155,1
716,925,57,0.176357842059787,1
717,925,57,0.135721600157678,1
688,938,58,0.171257104630108,1
688,939,58,0.21036003387592,1
688,940,58,0.176259458119061,1
688,941,58,0.127818451409922,1
689,937,58,0.152806358923647,1
689,938,58,0.187911736909707,1
689,939,58,0.1955375993414,1
689,940,58,0.174944571001266,1
689,941,58,0.165740137416244,1
689,942,58,0.161641999941775,1
689,943,58,0.129392771114532,1
690,935,58,0.11480281191996,1
690,936,58,0.176098126828182,1
690,937,58,0.181793949309918,1
690,938,58,0.154194745463763,1
690,939,58,0.149747482789052,1
690,940,58,0.165701992146432,1
690,941,58,0.197480334753184,1
690,942,58,0.222974541524241,1
690,943,58,0.19133747420513,1
690,944,58,0.12202424498746,1
691,935,58,0.168804807769039,1
691,936,58,0.213860990016138,1
691,937,58,0.167303327982239,1
691,940,58,0.124556789415216,1
691,941,58,0.167786685904099,1
691,942,58,0.204787833159303,1
691,943,58,0.185441821856714,1
691,944,58,0.134117414320236,1
692,935,58,0.165172410024506,1
692,936,58,0.163479567937868,1
692,937,58,0.115131657356504,1
692,944,58,0.119530564218357,1
692,945,58,0.129835899261251,1
693,935,58,0.117251870142808,1
694,932,58,0.116084747365963,1
694,933,58,0.125523458151471,1
695,931,58,0.129231074740798,1
695,932,58,0.167122058456784,1
695,933,58,0.143120934566883,1
696,930,58,0.125132996150661,1
696,931,58,0.166598788735173,1
696,932,58,0.177219178504223,1
696,933,58,0.125496971979255,1
697,930,58,0.176218663054341,1
697,931,58,0.189883254982627,1
697,932,58,0.151335510765987,1
698,929,58,0.152464712033479,1
698,930,58,0.198095181386823,1
698,931,58,0.186527825578769,1
698,932,58,0.124246928287081,1
699,929,58,0.12287996386669,1
699,930,58,0.149633152971412,1
699,931,58,0.131809195640977,1
700,929,58,0.118911737003922,1
701,928,58,0.149283285828595,1
701,929,58,0.159225563638464,1
702,927,58,0.133987951229453,1
702,928,58,0.180687701154764,1
702,929,58,0.181083898489443,1
703,927,58,0.140561927520643,1
703,928,58,0.161016424582974,1
703,929,58,0.140259744909308,1
704,926,58,0.119553364231434,1
704,927,58,0.155898116068837,1
704,928,58,0.160141061890824,1
704,929,58,0.117730835293553,1
705,926,58,0.130592504034048,1
705,927,58,0.164853398271288,1
705,928,58,0.166574127977227,1
705,929,58,0.120976527857612,1
706,926,58,0.150838338580006,1
706,927,58,0.154981428352985,1
706,928,58,0.138834367232273,1
707,926,58,0.149329745565986,1
707,927,58,0.147326394623568,1
708,926,58,0.117002071032593,1
708,927,58,0.127924902504035,1
713,924,58,0.11801292657105,1
714,923,58,0.155185792313173,1
714,924,58,0.133018149846774,1
715,924,58,0.178759203974287,1
715,925,58,0.151407443865096,1
716,924,58,0.210355652881672,1
716,925,58,0.172451891265795,1
717,925,58,0.133351199624572,1
720,950,58,0.128468228228885,1
721,950,58,0.126751396665677,1
688,938,59,0.17493244082902,1
688,939,59,0.232368406003036,1
688,940,59,0.225263563911499,1
688,941,59,0.150151311533066,1
689,937,59,0.169412635390388,1
689,938,59,0.202386695005261,1
689,939,59,0.212743365408178,1
689,940,59,0.192806661824647,1
689,941,59,0.151671657859612,1
689,942,59,0.133880357779313,1
689,943,59,0.126424800610588,1
690,936,59,0.189105451850565,1
690,937,59,0.213570525386731,1
690,938,59,0.175680907787231,1
690,939,59,0.155638601043958,1
690,940,59,0.157675539608946,1
690,941,59,0.164867989808583,1
690,942,59,0.199808126584165,1
690,943,59,0.215674862957318,1
690,944,59,0.15962664837264,1
691,935,59,0.160533502405166,1
691,936,59,0.236547262118843,1
691,937,59,0.206414524588165,1
691,938,59,0.130708058645779,1
691,941,59,0.13814436063817,1
691,942,59,0.189206638685461,1
691,943,59,0.212328254426288,1
691,944,59,0.170059632868913,1
691,945,59,0.136518057845894,1
692,935,59,0.162850647949049,1
692,936,59,0.192659745418069,1
692,937,59,0.146971557643191,1
692,943,59,0.114409959215299,1
692,944,59,0.124607571262524,1
692,945,59,0.154618418227423,1
692,946,59,0.15952056236138,1
693,934,59,0.114880845435791,1
693,935,59,0.126224958967043,1
693,936,59,0.115496457565737,1
693,945,59,0.11680524426681,1
693,946,59,0.137527405945471,1
694,933,59,0.141712574461592,1
694,934,59,0.115477261273735,1
695,932,59,0.156957480519414,1
695,933,59,0.165732906420361,1
696,930,59,0.122243188708077,1
696,931,59,0.154538594627921,1
696,932,59,0.178959457808152,1
696,933,59,0.146783386874108,1
697,930,59,0.173531217504682,1
697,931,59,0.195860261923159,1
697,932,59,0.166513229801803,1
698,929,59,0.123660887868311,1
698,930,59,0.188722691920288,1
698,931,59,0.197874765557923,1
698,932,59,0.137278148571103,1
699,930,59,0.148374170637747,1
699,931,59,0.147606931354719,1
700,929,59,0.116229108192563,1
701,927,59,0.118572421933273,1
701,928,59,0.150312159972429,1
701,929,59,0.170562187082775,1
702,927,59,0.150213257849588,1
702,928,59,0.185916877087862,1
702,929,59,0.189218321336789,1
703,926,59,0.121861300265903,1
703,927,59,0.156018404980804,1
703,928,59,0.175966273033548,1
703,929,59,0.145383953633441,1
704,927,59,0.156302227457641,1
704,928,59,0.165681264861816,1
704,929,59,0.114259050451059,1
705,926,59,0.131963743456891,1
705,927,59,0.150886600177934,1
705,928,59,0.140517434519917,1
706,926,59,0.174742303323271,1
706,927,59,0.154814279290173,1
707,926,59,0.150754463738511,1
707,927,59,0.135229904214507,1
712,924,59,0.115104782547702,1
713,923,59,0.136734881730585,1
713,924,59,0.119488179276691,1
714,924,59,0.133351034748445,1
715,924,59,0.18724100904567,1
715,925,59,0.151571424950883,1
716,924,59,0.219984418734865,1
716,925,59,0.167600493648548,1
717,925,59,0.124228627036915,1
719,950,59,0.118356811065807,1
720,950,59,0.137508621843788,1
720,951,59,0.124374624847925,1
721,950,59,0.138065750055893,1
721,951,59,0.140072857818647,1
722,950,59,0.121114611614496,1
687,940,60,0.244825056536024,1
688,938,60,0.167319815595002,1
688,939,60,0.241208051155692,1
688,940,60,0.282510957902979,1
688,941,60,0.183877700918285,1
689,937,60,0.171232173004238,1
689,938,60,0.200587331163312,1
689,939,60,0.209281767554997,1
689,940,60,0.199421539172354,1
689,941,60,0.140542036393532,1
689,943,60,0.122949329608954,1
689,944,60,0.116737798153745,1
690,936,60,0.178002976061211,1
690,937,60,0.22338487109843,1
690,938,60,0.196919885464794,1
690,939,60,0.157182983954538,1
690,940,60,0.134541381505553,1
690,941,60,0.125387541337978,1
690,942,60,0.159485797052184,1
690,943,60,0.207375658197278,1
690,944,60,0.184201399864274,1
690,945,60,0.134069352929034,1
691,935,60,0.140611614119389,1
691,936,60,0.223767218838388,1
691,937,60,0.228020269211625,1
691,938,60,0.159003652147549,1
691,942,60,0.152742587192856,1
691,943,60,0.211393595212525,1
691,944,60,0.202219534165584,1
691,945,60,0.175795037398145,1
691,946,60,0.132664290346295,1
692,935,60,0.146672060157363,1
692,936,60,0.195971129342119,1
692,937,60,0.170584504244335,1
692,944,60,0.127264879811427,1
692,945,60,0.161172303184776,1
692,946,60,0.176664511657166,1
692,947,60,0.124346219046509,1
693,935,60,0.125057683090936,1
693,936,60,0.125424662020426,1
693,946,60,0.136313846984967,1
693,947,60,0.124189916477522,1
694,933,60,0.139263728222337,1
694,934,60,0.12511876969622,1
695,932,60,0.137364790976169,1
695,933,60,0.161935820978066,1
695,934,60,0.118441251196883,1
696,930,60,0.117163838067524,1
696,931,60,0.140924242811095,1
696,932,60,0.163040125950287,1
696,933,60,0.146948781183846,1
697,930,60,0.154622999428398,1
697,931,60,0.180009577418716,1
697,932,60,0.160807974050193,1
698,930,60,0.155046342439803,1
698,931,60,0.178987251212523,1
698,932,60,0.137027371980989,1
699,930,60,0.129223619984456,1
699,931,60,0.143991739611791,1
700,929,60,0.115825832961263,1
701,927,60,0.142510092067772,1
701,928,60,0.161028001242506,1
701,929,60,0.166909533128278,1
702,926,60,0.164922681575488,1
702,927,60,0.174009275836725,1
702,928,60,0.190603692999143,1
702,929,60,0.173184659661284,1
702,953,60,0.165010289683588,1
703,926,60,0.130935022412319,1
703,927,60,0.166781129955458,1
703,928,60,0.183947184429212,1
703,929,60,0.1358509101492,1
704,927,60,0.153470362197051,1
704,928,60,0.158814833650822,1
705,926,60,0.12447323254911,1
705,927,60,0.13389015613204,1
706,926,60,0.165647029511602,1
706,927,60,0.136021297850232,1
707,926,60,0.130138894476358,1
712,924,60,0.122809361553469,1
713,924,60,0.114379304032427,1
715,924,60,0.181544880365411,1
715,925,60,0.146715505016992,1
716,925,60,0.15353832649223,1
719,950,60,0.120110633765934,1
720,950,60,0.133309262203825,1
720,951,60,0.128539819798872,1
721,950,60,0.142299333269204,1
721,951,60,0.138802287048584,1
722,950,60,0.126829971917356,1
686,940,61,0.120218498083998,1
687,939,61,0.167211963053804,1
687,940,61,0.249115368914104,1
687,941,61,0.186193350800153,1
688,938,61,0.155174227430507,1
688,939,61,0.227359846105565,1
688,940,61,0.302211794409079,1
688,941,61,0.201535533773273,1
689,937,61,0.159112894358966,1
689,938,61,0.186665768013259,1
689,939,61,0.187566992703713,1
689,940,61,0.185574064287934,1
689,941,61,0.129048804181711,1
689,943,61,0.119047430056956,1
689,944,61,0.131951589730912,1
690,936,61,0.149498390290812,1
690,937,61,0.20939303538741,1
690,938,61,0.209457337077183,1
690,939,61,0.15367173483321,1
690,942,61,0.119285287424785,1
690,943,61,0.168523328888587,1
690,944,61,0.180931446955722,1
690,945,61,0.145995867827382,1
691,935,61,0.114505540261855,1
691,936,61,0.184669247653271,1
691,937,61,0.22512445556725,1
691,938,61,0.186844953033386,1
691,939,61,0.11517240531376,1
691,942,61,0.114971197553728,1
691,943,61,0.178116846581067,1
691,944,61,0.205364711176124,1
691,945,61,0.189899177305809,1
691,946,61,0.133060169705585,1
692,935,61,0.12088880198085,1
692,936,61,0.171212046339802,1
692,937,61,0.173224748114029,1
692,938,61,0.117921973832934,1
692,944,61,0.125624079696786,1
692,945,61,0.149233752329111,1
692,946,61,0.155103742885948,1
692,947,61,0.123573809719193,1
693,936,61,0.120888118922607,1
693,947,61,0.119306909751236,1
694,933,61,0.119134025354557,1
694,934,61,0.120185652404002,1
695,932,61,0.116188866640557,1
695,933,61,0.135844291550362,1
695,934,61,0.115161346836343,1
696,931,61,0.127107328894617,1
696,932,61,0.136347034194084,1
696,933,61,0.126651740823395,1
697,930,61,0.130665131968266,1
697,931,61,0.152594599091448,1
697,932,61,0.136671133553526,1
698,930,61,0.121111997150187,1
698,931,61,0.14511478157823,1
698,932,61,0.120679020662182,1
699,931,61,0.121730942133284,1
700,927,61,0.115920424751054,1
700,928,61,0.122532475650858,1
700,929,61,0.118132167341921,1
701,926,61,0.16492746298319,1
701,927,61,0.169870979248314,1
701,928,61,0.169552320801083,1
701,929,61,0.149258966599771,1
701,953,61,0.114985847975354,1
702,926,61,0.179774146085337,1
702,927,61,0.193918798412931,1
702,928,61,0.193947475082271,1
702,929,61,0.149763110690578,1
702,953,61,0.130990573890461,1
702,954,61,0.19539043562063,1
703,926,61,0.128829754469297,1
703,927,61,0.169664236361141,1
703,928,61,0.178690050215616,1
703,929,61,0.120918880097275,1
704,927,61,0.150458935056612,1
704,928,61,0.142121149282709,1
705,926,61,0.114890149160135,1
705,927,61,0.125231957157833,1
706,926,61,0.13371412731207,1
706,927,61,0.114106410487478,1
712,924,61,0.122212191996084,1
715,925,61,0.130108627930073,1
716,925,61,0.129219662957393,1
721,950,61,0.121456906232308,1
721,951,61,0.119068498870693,1
687,940,62,0.220468518599299,1
688,938,62,0.145748223883692,1
688,939,62,0.201886790586308,1
688,940,62,0.274399099531384,1
688,941,62,0.193570474039594,1
689,937,62,0.143305984466408,1
689,938,62,0.171148663245597,1
689,939,62,0.162289268288225,1
689,940,62,0.160067197385649,1
689,941,62,0.114917353721193,1
689,944,62,0.135665954464605,1
690,936,62,0.124447417658271,1
690,937,62,0.185861549370178,1
690,938,62,0.205362002496884,1
690,939,62,0.141122423916498,1
690,943,62,0.12632569828102,1
690,944,62,0.16367287342064,1
690,945,62,0.143341197296521,1
691,936,62,0.146535472062494,1
691,937,62,0.202019398100382,1
691,938,62,0.192977037748813,1
691,939,62,0.114120966694174,1
691,943,62,0.13566244495846,1
691,944,62,0.184610351545111,1
691,945,62,0.179661182384182,1
691,946,62,0.12074954053734,1
692,936,62,0.138343954967525,1
692,937,62,0.154064128240087,1
692,938,62,0.119641914488834,1
692,944,62,0.122679863132087,1
692,945,62,0.135095530170494,1
692,946,62,0.125089445299236,1
697,931,62,0.122039295822538,1
700,927,62,0.127680473644834,1
700,928,62,0.127851803495167,1
701,926,62,0.171397720413238,1
701,927,62,0.183039388247385,1
701,928,62,0.16414486666656,1
701,929,62,0.121525659577527,1
702,926,62,0.16896213492539,1
702,927,62,0.194405618733471,1
702,928,62,0.181001648855491,1
702,929,62,0.120584099120136,1
702,954,62,0.128459666447114,1
703,926,62,0.120830106079416,1
703,927,62,0.1581677301805,1
703,928,62,0.153672794751173,1
704,927,62,0.132672675475072,1
712,923,62,0.123303695514682,1
713,923,62,0.13582789815253,1
715,924,62,0.127378243926034,1
727,944,62,0.127984140141317,1
727,945,62,0.132254985359471,1
688,938,63,0.145184559510813,1
688,939,63,0.18512692022982,1
688,940,63,0.221591607673203,1
689,937,63,0.130522996969388,1
689,938,63,0.16175071219421,1
689,939,63,0.154285286011561,1
689,940,63,0.143321376830608,1
689,944,63,0.124413994911828,1
690,937,63,0.157632059418718,1
690,938,63,0.182453936671927,1
690,939,63,0.129697120669258,1
690,944,63,0.143970800343583,1
690,945,63,0.130151495723255,1
691,937,63,0.164400377556911,1
691,938,63,0.169287612178184,1
691,944,63,0.152437307265695,1
691,945,63,0.151017182071012,1
692,937,63,0.123936442985034,1
692,944,63,0.117062239042309,1
692,945,63,0.123052035659597,1
694,950,63,0.117832210558309,1
700,927,63,0.121649881962825,1
701,926,63,0.144726510074544,1
701,927,63,0.157770708465183,1
701,928,63,0.135366704292969,1
702,926,63,0.131553920287951,1
702,927,63,0.157260204866597,1
702,928,63,0.142648376031383,1
703,927,63,0.124355970291771,1
703,928,63,0.114801045390021,1
712,922,63,0.113954536020205,1
712,923,63,0.121215386259073,1
713,922,63,0.135482824194281,1
713,923,63,0.125872218268859,1
714,922,63,0.143454938270849,1
714,923,63,0.12260181783939,1
715,922,63,0.129545681946036,1
722,922,63,0.125261034240626,1
727,943,63,0.116602811712687,1
727,944,63,0.141882538195439,1
727,945,63,0.152621261916658,1
688,938,64,0.136030731120105,1
688,939,64,0.157829781226337,1
689,937,64,0.115066366409966,1
689,938,64,0.144697597867878,1
689,939,64,0.138992612984193,1
689,940,64,0.119934310524307,1
690,937,64,0.126355670405649,1
690,938,64,0.145714812914116,1
690,944,64,0.116244359234368,1
691,937,64,0.122472708054595,1
691,938,64,0.129123775712314,1
691,944,64,0.117266190812179,1
691,945,64,0.11664208756166,1
694,950,64,0.118860154329708,1
701,926,64,0.117167700879657,1
701,927,64,0.123487414628319,1
702,955,64,0.115476896190881,1
703,955,64,0.114241820895722,1
712,922,64,0.125017382654598,1
712,923,64,0.114562104550496,1
713,922,64,0.122839003925842,1
722,922,64,0.113966783961114,1
727,941,64,0.119667069875162,1
727,942,64,0.12185724902391,1
727,943,64,0.129962842102655,1
727,944,64,0.14539273917567,1
688,938,65,0.115196041484341,1
688,939,65,0.120500424485367,1
689,938,65,0.121662577424652,1
689,939,65,0.116058838260193,1
702,955,65,0.116471111017315,1
703,955,65,0.125471027542887,1
711,922,65,0.127418379486244,1
712,922,65,0.124580767114919,1
720,952,65,0.119439811686966,1
725,923,65,0.124171356136298,1
725,924,65,0.168473194768923,1
727,940,65,0.121642321214687,1
727,941,65,0.144007497058845,1
727,942,65,0.143587781322248,1
727,943,65,0.13827430658047,1
727,944,65,0.140751275976352,1
703,955,66,0.119492524940341,1
710,922,66,0.119538313396355,1
711,922,66,0.138762163265241,1
712,922,66,0.114132284262649,1
718,952,66,0.116147388517593,1
719,952,66,0.121950451143482,1
720,952,66,0.127421794777459,1
725,923,66,0.125132301315551,1
725,924,66,0.173279180789877,1
726,923,66,0.136194052701382,1
726,924,66,0.170318877025868,1
726,944,66,0.131336672436075,1
726,945,66,0.123342241197947,1
726,946,66,0.116050029164232,1
727,940,66,0.130822447347751,1
727,941,66,0.15803356812008,1
727,942,66,0.157998649711622,1
727,944,66,0.135167192401679,1
694,953,67,0.159990200234049,1
695,927,67,0.116885091420044,1
695,953,67,0.11828830503478,1
710,922,67,0.129967917932012,1
711,921,67,0.114081172663086,1
711,922,67,0.141412900322771,1
718,952,67,0.125334568993546,1
725,923,67,0.114314048416487,1
725,924,67,0.142383997160739,1
726,923,67,0.11881853488435,1
726,924,67,0.140776207602222,1
726,942,67,0.123060197027915,1
726,943,67,0.141995961194378,1
726,944,67,0.149815046670779,1
726,945,67,0.13629979718352,1
727,942,67,0.157775772517674,1
694,953,68,0.159613705596621,1
695,953,68,0.122217444478435,1
710,922,68,0.121396243594209,1
711,922,68,0.121553217444573,1
725,944,68,0.114479383841895,1
725,945,68,0.115038078377212,1
725,946,68,0.114424515421995,1
726,942,68,0.136911664269996,1
726,943,68,0.15898457362421,1
726,944,68,0.152240445169313,1
726,945,68,0.141441306124187,1
726,946,68,0.145956898176932,1
694,953,69,0.134996050981206,1
695,953,69,0.116707755367919,1
725,946,69,0.124340413051444,1
726,942,69,0.13679480242611,1
726,943,69,0.152878350907087,1
726,944,69,0.136107127651526,1
