x,y,z,signal,mito.p
1018,152,30,0.120678149174079,1
1018,153,30,0.126147808716181,1
1018,154,30,0.126891729804017,1
1019,151,30,0.124557013175675,1
1019,152,30,0.126502268836838,1
1019,153,30,0.130609545159524,1
1019,154,30,0.129893853220111,1
1020,152,30,0.123909026440384,1
1020,153,30,0.126166168850679,1
1023,161,30,0.185085571652386,1
1023,162,30,0.201196407132485,1
1023,163,30,0.180922107900779,1
1017,152,31,0.11849581341826,1
1017,153,31,0.117583447812325,1
1017,154,31,0.118228655207179,1
1018,151,31,0.137143256344975,1
1018,152,31,0.136157626854044,1
1018,153,31,0.139371604317267,1
1018,154,31,0.136751145582888,1
1018,155,31,0.126827145469454,1
1019,150,31,0.143024328932962,1
1019,151,31,0.138672929949598,1
1019,152,31,0.144811056197416,1
1019,153,31,0.14918874114627,1
1019,154,31,0.142747148608695,1
1019,155,31,0.130544866610031,1
1020,151,31,0.134708895651218,1
1020,152,31,0.138308718583678,1
1020,153,31,0.1396209087991,1
1020,154,31,0.134619697666174,1
1021,152,31,0.121247148467373,1
1021,153,31,0.119939975196978,1
1022,161,31,0.187213828038344,1
1022,162,31,0.191801741826784,1
1022,163,31,0.174315368367658,1
1023,160,31,0.173581693153467,1
1023,161,31,0.211061558245224,1
1023,162,31,0.241554338131166,1
1023,163,31,0.224935271987668,1
1023,164,31,0.175036465888684,1
1024,161,31,0.196330900829459,1
1024,162,31,0.239625499421567,1
1024,163,31,0.231770329626949,1
1017,151,32,0.146906549341442,1
1017,152,32,0.131268036859519,1
1017,153,32,0.124166009439017,1
1017,154,32,0.121421952493252,1
1018,150,32,0.158723610044781,1
1018,151,32,0.155151180103239,1
1018,152,32,0.154686158762144,1
1018,153,32,0.154474740459066,1
1018,154,32,0.14467244248155,1
1018,155,32,0.125396138450347,1
1019,150,32,0.148098886388948,1
1019,151,32,0.14980556629344,1
1019,152,32,0.160489998661206,1
1019,153,32,0.163269138891556,1
1019,154,32,0.150288606239911,1
1019,155,32,0.129787967415578,1
1020,151,32,0.143983201383754,1
1020,152,32,0.150501920618457,1
1020,153,32,0.14941346730822,1
1020,154,32,0.140324929864051,1
1020,155,32,0.127536795876476,1
1021,152,32,0.124083488937142,1
1021,153,32,0.119679671122059,1
1021,154,32,0.116942374097527,1
1021,162,32,0.161399420050576,1
1022,161,32,0.204949034904653,1
1022,162,32,0.221827404089437,1
1022,163,32,0.20544083683962,1
1023,160,32,0.189731651383278,1
1023,161,32,0.237931091011717,1
1023,162,32,0.2905267877071,2
1023,163,32,0.287031107602966,2
1023,164,32,0.2119756550505,1
1024,161,32,0.230092291061198,1
1024,162,32,0.300790255990444,1
1024,163,32,0.313575339769658,2
1024,164,32,0.228279548699179,1
1017,151,33,0.153937597589002,1
1017,152,33,0.135489489900583,1
1017,153,33,0.125480472589626,1
1017,154,33,0.120880581728201,1
1018,150,33,0.163939219027949,1
1018,151,33,0.157772510325721,1
1018,152,33,0.153685066245815,1
1018,153,33,0.150366121573627,1
1018,154,33,0.14080791092619,1
1018,155,33,0.119685371125329,1
1019,150,33,0.14958121699121,1
1019,151,33,0.152551177785552,1
1019,152,33,0.15714221244355,1
1019,153,33,0.156588063778608,1
1019,154,33,0.146829740619702,1
1019,155,33,0.127487356591922,1
1020,150,33,0.143531452570932,1
1020,151,33,0.148178085814538,1
1020,152,33,0.149426669175296,1
1020,153,33,0.145200929354913,1
1020,154,33,0.13898809066755,1
1020,155,33,0.129129275508857,1
1021,151,33,0.125949533395848,1
1021,152,33,0.121546045333021,1
1021,153,33,0.11509288791278,1
1021,154,33,0.113940709979217,1
1021,161,33,0.170627466252448,1
1021,162,33,0.171699196412597,1
1021,163,33,0.159010023432195,1
1022,160,33,0.173816382544272,1
1022,161,33,0.213418792241853,1
1022,162,33,0.242782311975971,2
1022,163,33,0.228565067044757,2
1022,164,33,0.177990186384454,1
1023,160,33,0.196923500962735,1
1023,161,33,0.25694731472846,2
1023,162,33,0.328349842458505,2
1023,163,33,0.334532862120501,2
1023,164,33,0.244417906715725,2
1023,165,33,0.15398318583829,1
1024,160,33,0.205679883670942,1
1024,161,33,0.264796855181006,1
1024,162,33,0.355446386099002,2
1024,163,33,0.38113950414117,2
1024,164,33,0.274980193666326,2
1024,165,33,0.156994824962321,1
1017,151,34,0.146518584036279,1
1017,152,34,0.129876364573717,1
1017,153,34,0.119309017810296,1
1018,150,34,0.15312466406489,1
1018,151,34,0.146127910051876,1
1018,152,34,0.14003746833554,1
1018,153,34,0.135431936355177,1
1018,154,34,0.127680002570183,1
1019,150,34,0.146612563429024,1
1019,151,34,0.145687266823937,1
1019,152,34,0.144397711745464,1
1019,153,34,0.14185700594939,1
1019,154,34,0.133531362124599,1
1019,155,34,0.116579693724221,1
1020,150,34,0.140645767031539,1
1020,151,34,0.140796946663703,1
1020,152,34,0.138061451499709,1
1020,153,34,0.133248823326185,1
1020,154,34,0.12670577308579,1
1021,151,34,0.116160778814529,1
1021,162,34,0.170708950390092,1
1021,163,34,0.162958288506655,1
1022,161,34,0.192575328840726,1
1022,162,34,0.230075874109634,2
1022,163,34,0.221708787492478,2
1022,164,34,0.175732148932323,1
1023,160,34,0.171882986187432,1
1023,161,34,0.237082049615655,2
1023,162,34,0.313404292564115,2
1023,163,34,0.325015670298244,2
1023,164,34,0.239985965744017,2
1023,165,34,0.150059840612834,1
1024,160,34,0.193711949533961,1
1024,161,34,0.263846933148572,2
1024,162,34,0.356783767031351,2
1024,163,34,0.383258233042325,2
1024,164,34,0.278412655552383,2
1024,165,34,0.155388519288952,1
1017,149,35,0.175965507537242,1
1017,151,35,0.143340914651731,1
1017,152,35,0.131506412409463,1
1017,153,35,0.120772199228022,1
1018,149,35,0.155834403222377,1
1018,150,35,0.149024124109704,1
1018,151,35,0.140809277042676,1
1018,152,35,0.133262402052981,1
1018,153,35,0.126882649840131,1
1018,154,35,0.116620641888203,1
1019,149,35,0.140911865324657,1
1019,150,35,0.149033086304927,1
1019,151,35,0.141274675243491,1
1019,152,35,0.136931366967247,1
1019,153,35,0.134181138943562,1
1019,154,35,0.12253067379032,1
1020,150,35,0.13998068028644,1
1020,151,35,0.133535283821064,1
1020,152,35,0.12983111785355,1
1020,153,35,0.127488357625554,1
1020,154,35,0.1178247793557,1
1021,162,35,0.176040702828304,1
1021,163,35,0.175185031056538,1
1022,161,35,0.18253769374476,1
1022,162,35,0.232767924414,2
1022,163,35,0.231259190077585,2
1022,164,35,0.183190026143701,1
1023,160,35,0.152098404385366,1
1023,161,35,0.227413807706762,2
1023,162,35,0.309937253798722,2
1023,163,35,0.325091819515473,2
1023,164,35,0.241831330025573,2
1023,165,35,0.158054236520364,1
1024,160,35,0.171475683267871,1
1024,161,35,0.254836452773965,1
1024,162,35,0.347166542507091,2
1024,163,35,0.372363854479764,2
1024,164,35,0.276192480725274,2
1024,165,35,0.167782104703125,1
1016,149,36,0.171388075159772,1
1016,150,36,0.156466020113569,1
1017,148,36,0.180116558471811,1
1017,149,36,0.176085525581285,1
1017,150,36,0.156984767518536,1
1017,151,36,0.143540261666894,1
1017,152,36,0.13522577053445,1
1017,153,36,0.123839531152591,1
1018,148,36,0.157799055382268,1
1018,149,36,0.158213930826833,1
1018,150,36,0.153923488903224,1
1018,151,36,0.142571367102916,1
1018,152,36,0.133031869895965,1
1018,153,36,0.125113281676543,1
1019,149,36,0.148852723598174,1
1019,150,36,0.155295293615648,1
1019,151,36,0.140073434885094,1
1019,152,36,0.134376104964477,1
1019,153,36,0.133107512707945,1
1019,154,36,0.118176542573984,1
1020,150,36,0.13750587783395,1
1020,151,36,0.125187051966788,1
1020,152,36,0.123331806894441,1
1020,153,36,0.125782266564374,1
1020,154,36,0.114445584235732,1
1020,163,36,0.186576570028215,1
1020,164,36,0.179466875867778,1
1021,162,36,0.176159602070053,1
1021,163,36,0.191671466132229,1
1021,164,36,0.180112719213411,1
1022,161,36,0.169379471735003,1
1022,162,36,0.227156153426752,1
1022,163,36,0.23864224885762,2
1022,164,36,0.19214285875797,1
1023,160,36,0.130651164604883,1
1023,161,36,0.204828062934443,1
1023,162,36,0.287216169279357,2
1023,163,36,0.307362807280817,2
1023,164,36,0.229390484047104,2
1023,165,36,0.166635662103429,1
1024,161,36,0.218534238977489,1
1024,162,36,0.301153266116006,1
1024,163,36,0.325138361690928,2
1024,164,36,0.248086047249353,1
1024,165,36,0.180116287603887,1
1015,149,37,0.136933710563632,1
1015,150,37,0.136689917655209,1
1016,148,37,0.166016340260612,1
1016,149,37,0.182761418873078,1
1016,150,37,0.160054972998472,1
1016,151,37,0.14350668582119,1
1016,152,37,0.149937584964202,1
1017,147,37,0.150771092673668,1
1017,148,37,0.174461542831662,1
1017,149,37,0.173661281215644,1
1017,150,37,0.154307332305197,1
1017,151,37,0.141713387065364,1
1017,152,37,0.138071249852436,1
1017,153,37,0.126287529457476,1
1018,148,37,0.155635009099749,1
1018,149,37,0.157572704012774,1
1018,150,37,0.153619469100753,1
1018,151,37,0.142797777356742,1
1018,152,37,0.130544101113724,1
1018,153,37,0.122351771414983,1
1019,148,37,0.1374043259162,1
1019,149,37,0.151295104337853,1
1019,150,37,0.152120815761856,1
1019,151,37,0.134170963731115,1
1019,152,37,0.125187040189922,1
1019,153,37,0.128448030903251,1
1019,154,37,0.114260169253353,1
1019,163,37,0.212923834106728,1
1019,164,37,0.180866579976369,1
1020,149,37,0.133067094502945,1
1020,150,37,0.130860604394429,1
1020,151,37,0.116012402076535,1
1020,152,37,0.113878669447766,1
1020,153,37,0.123658296957734,1
1020,162,37,0.191275280574417,1
1020,163,37,0.227643809904797,1
1020,164,37,0.223281752857468,1
1020,165,37,0.183136217641764,1
1021,162,37,0.172828703878612,1
1021,163,37,0.209524017693941,1
1021,164,37,0.211641050726355,1
1021,165,37,0.193471206833899,1
1022,161,37,0.159961264473651,1
1022,162,37,0.228138249857806,1
1022,163,37,0.260142143007146,1
1022,164,37,0.219441034125684,1
1022,165,37,0.179192580875745,1
1023,161,37,0.189027265235473,1
1023,162,37,0.274983750279936,1
1023,163,37,0.303372710777406,2
1023,164,37,0.236876684621834,1
1023,165,37,0.190026897420386,1
1024,161,37,0.187206703034258,1
1024,162,37,0.257961350020807,1
1024,163,37,0.279375861889957,1
1024,164,37,0.232577468932862,1
1015,148,38,0.125027993611097,1
1015,149,38,0.1438913889344,1
1015,150,38,0.142515285665792,1
1015,151,38,0.147100914742178,1
1015,152,38,0.156812071551717,1
1016,147,38,0.139415532028413,1
1016,148,38,0.166878395093889,1
1016,149,38,0.191349345286319,1
1016,150,38,0.168285860157345,1
1016,151,38,0.154187985542531,1
1016,152,38,0.158773343750992,1
1016,153,38,0.137631089476013,1
1017,147,38,0.14940607143621,1
1017,148,38,0.170556416418308,1
1017,149,38,0.178993422290442,1
1017,150,38,0.162786393366741,1
1017,151,38,0.151816006909346,1
1017,152,38,0.14514106754372,1
1017,153,38,0.127380952605274,1
1017,161,38,0.118607175465603,1
1018,147,38,0.14167653725084,1
1018,148,38,0.156693172309968,1
1018,149,38,0.162041377030344,1
1018,150,38,0.158057769580241,1
1018,151,38,0.147905522021845,1
1018,152,38,0.13202585464954,1
1018,153,38,0.118972046336033,1
1018,160,38,0.12137716507087,1
1018,161,38,0.157473483914544,1
1018,162,38,0.163674251313992,1
1018,163,38,0.143309859055407,1
1019,146,38,0.117447154139112,1
1019,147,38,0.129520762097032,1
1019,148,38,0.139924115997799,1
1019,149,38,0.150145587976065,1
1019,150,38,0.146010200273619,1
1019,151,38,0.129546082359489,1
1019,152,38,0.117424271687971,1
1019,153,38,0.118535395465756,1
1019,160,38,0.122295112911412,1
1019,161,38,0.175899933945913,1
1019,162,38,0.214643727655163,1
1019,163,38,0.214174867055668,1
1019,164,38,0.174725968809771,1
1020,146,38,0.119338813281931,1
1020,147,38,0.126029780962536,1
1020,148,38,0.125071297148331,1
1020,149,38,0.1288104168549,1
1020,150,38,0.120369359740773,1
1020,161,38,0.136585963256743,1
1020,162,38,0.183811008524661,1
1020,163,38,0.226543096876784,1
1020,164,38,0.219835040963238,1
1020,165,38,0.178116787696736,1
1021,142,38,0.120157293710051,1
1021,147,38,0.121348347079135,1
1021,148,38,0.113763055951703,1
1021,162,38,0.151313935547001,1
1021,163,38,0.198202515745906,1
1021,164,38,0.208659996123998,1
1021,165,38,0.19297031315818,1
1022,141,38,0.146459452390793,1
1022,162,38,0.196450341807056,1
1022,163,38,0.248325588709057,1
1022,164,38,0.225400646634751,1
1022,165,38,0.184593805048017,1
1022,166,38,0.153884319046047,1
1023,133,38,0.179632211293186,1
1023,161,38,0.150822027620237,1
1023,162,38,0.224510857281434,1
1023,163,38,0.263961262966212,1
1023,164,38,0.22823736396424,1
1023,165,38,0.202337137952044,1
1023,166,38,0.190895841720425,1
1024,162,38,0.195802837923281,1
1024,163,38,0.216815381793285,1
1024,164,38,0.207276025908729,1
1024,165,38,0.230530437593491,1
1024,166,38,0.245097055039137,1
1014,151,39,0.119641620067177,1
1014,152,39,0.123548348134342,1
1015,148,39,0.132627782060893,1
1015,149,39,0.144036527034173,1
1015,150,39,0.141058416648381,1
1015,151,39,0.14234344941021,1
1015,152,39,0.146932328901683,1
1015,153,39,0.134291452849809,1
1015,154,39,0.123032827590729,1
1016,147,39,0.148390952672166,1
1016,148,39,0.165233049108873,1
1016,149,39,0.178969491698204,1
1016,150,39,0.159033883363236,1
1016,151,39,0.147755355200179,1
1016,152,39,0.147427251706209,1
1016,153,39,0.134586074713005,1
1016,154,39,0.120501036882413,1
1017,147,39,0.151827713114407,1
1017,148,39,0.165927201159899,1
1017,149,39,0.172826136521768,1
1017,150,39,0.15688647779274,1
1017,151,39,0.147472686856235,1
1017,152,39,0.140621365364651,1
1017,153,39,0.126982399897343,1
1017,154,39,0.113920218231927,1
1017,159,39,0.116670458032478,1
1017,160,39,0.119378442436892,1
1017,161,39,0.124300112615106,1
1017,162,39,0.115140395791268,1
1018,146,39,0.127583891564645,1
1018,147,39,0.142365330827719,1
1018,148,39,0.15153331501167,1
1018,149,39,0.157645237732062,1
1018,150,39,0.151162296617053,1
1018,151,39,0.144355055935875,1
1018,152,39,0.131287916209764,1
1018,153,39,0.119372459788832,1
1018,160,39,0.128185536331208,1
1018,161,39,0.16041346080739,1
1018,162,39,0.163839928268521,1
1018,163,39,0.143613466667559,1
1019,146,39,0.124814066835506,1
1019,147,39,0.135600863724793,1
1019,148,39,0.137401393476502,1
1019,149,39,0.141284014298435,1
1019,150,39,0.136667494501852,1
1019,151,39,0.126595800708666,1
1019,152,39,0.114648264104046,1
1019,160,39,0.11764210838316,1
1019,161,39,0.168943021071452,1
1019,162,39,0.204764821162633,1
1019,163,39,0.200828003202177,1
1019,164,39,0.160178053027743,1
1019,165,39,0.11999823535436,1
1020,146,39,0.116898740808038,1
1020,147,39,0.12981437114973,1
1020,148,39,0.129440785398269,1
1020,149,39,0.127781872463322,1
1020,150,39,0.117317267081143,1
1020,161,39,0.125304573315185,1
1020,162,39,0.170397499385012,1
1020,163,39,0.207336323463974,1
1020,164,39,0.197986881324707,1
1020,165,39,0.16131432041499,1
1020,166,39,0.120241321650808,1
1021,141,39,0.14012485268318,1
1021,142,39,0.117609521794222,1
1021,148,39,0.114024137299794,1
1021,162,39,0.137498905929125,1
1021,163,39,0.190019678201369,1
1021,164,39,0.20879651355767,1
1021,165,39,0.185963819676769,1
1021,166,39,0.145658130856812,1
1022,133,39,0.132988213052744,1
1022,139,39,0.155854329680087,1
1022,140,39,0.177557916508425,1
1022,141,39,0.14671201906458,1
1022,162,39,0.164754378379784,1
1022,163,39,0.235822678645404,1
1022,164,39,0.244694804395202,1
1022,165,39,0.197708758851139,1
1022,166,39,0.156962697671167,1
1022,167,39,0.12020901770666,1
1023,132,39,0.170583008582321,1
1023,133,39,0.216659903604936,1
1023,134,39,0.199535068163089,1
1023,162,39,0.173286376455161,1
1023,163,39,0.222216111337175,1
1023,164,39,0.22600482342756,1
1023,165,39,0.21593553211509,1
1023,166,39,0.217001526941372,1
1023,167,39,0.172290536421184,1
1024,133,39,0.229463806816431,1
1024,163,39,0.16700657450625,1
1024,164,39,0.186994837210262,1
1024,165,39,0.24053639291922,1
1024,166,39,0.288694142441103,1
1024,167,39,0.234735414798659,1
1014,150,40,0.114870128487495,1
1014,151,40,0.117706940031914,1
1014,152,40,0.120886988343446,1
1014,153,40,0.122044371651896,1
1015,148,40,0.136733715820825,1
1015,149,40,0.142212584872342,1
1015,150,40,0.143210886271368,1
1015,151,40,0.144175034758243,1
1015,152,40,0.140465310109856,1
1015,153,40,0.132885777870025,1
1015,154,40,0.123782801987822,1
1016,147,40,0.156033703130074,1
1016,148,40,0.163096136726214,1
1016,149,40,0.166818344852836,1
1016,150,40,0.161751889880836,1
1016,151,40,0.158844322923934,1
1016,152,40,0.14760730821444,1
1016,153,40,0.132569015498262,1
1016,154,40,0.124117335650769,1
1017,145,40,0.121218224483841,1
1017,146,40,0.14233208473427,1
1017,147,40,0.159041149689717,1
1017,148,40,0.168132690234783,1
1017,149,40,0.174462532088427,1
1017,150,40,0.165336096688637,1
1017,151,40,0.158184170685797,1
1017,152,40,0.145093771648824,1
1017,153,40,0.128349081672944,1
1017,154,40,0.118454924138609,1
1017,158,40,0.118411785477503,1
1017,159,40,0.126674847034995,1
1017,160,40,0.125886951128549,1
1017,161,40,0.12263741930609,1
1018,145,40,0.121516685605438,1
1018,146,40,0.136180438643987,1
1018,147,40,0.144424256802012,1
1018,148,40,0.152123865970217,1
1018,149,40,0.160440017640804,1
1018,150,40,0.150979861181838,1
1018,151,40,0.141692777549411,1
1018,152,40,0.129860265597541,1
1018,153,40,0.118036197658778,1
1018,159,40,0.116908221185376,1
1018,160,40,0.129644313200953,1
1018,161,40,0.147959448292444,1
1018,162,40,0.150087139388822,1
1018,163,40,0.13464117867023,1
1019,145,40,0.114351863934044,1
1019,146,40,0.130530593048125,1
1019,147,40,0.137680446322504,1
1019,148,40,0.134538767041243,1
1019,149,40,0.135141801478025,1
1019,150,40,0.129433059774003,1
1019,151,40,0.120206238366223,1
1019,161,40,0.145650369901948,1
1019,162,40,0.172512718780022,1
1019,163,40,0.169005332470827,1
1019,164,40,0.135701449939509,1
1020,140,40,0.11837811541687,1
1020,146,40,0.114718783979203,1
1020,147,40,0.129488505260349,1
1020,148,40,0.127348813537253,1
1020,149,40,0.12056463196021,1
1020,162,40,0.144001184658531,1
1020,163,40,0.169379530619334,1
1020,164,40,0.1620397518228,1
1020,165,40,0.133966164026874,1
1021,138,40,0.123155460099082,1
1021,139,40,0.144708291262441,1
1021,140,40,0.150701750485136,1
1021,141,40,0.13097820818089,1
1021,162,40,0.118458881165672,1
1021,163,40,0.167107879109808,1
1021,164,40,0.192272557386078,1
1021,165,40,0.164069247408312,1
1021,166,40,0.126609662080252,1
1022,133,40,0.143121476302731,1
1022,134,40,0.164377318452776,1
1022,135,40,0.159445755706905,1
1022,137,40,0.119866499328389,1
1022,138,40,0.121344272283409,1
1022,139,40,0.143802956445663,1
1022,140,40,0.155902956360869,1
1022,141,40,0.13110900205756,1
1022,162,40,0.127168886574551,1
1022,163,40,0.199379754850868,1
1022,164,40,0.23908663712903,1
1022,165,40,0.196540317065273,1
1022,166,40,0.150642477517256,1
1022,167,40,0.114502690260221,1
1023,132,40,0.15469300112144,1
1023,133,40,0.22361586255323,1
1023,134,40,0.222060067859246,1
1023,135,40,0.177562745023591,1
1023,162,40,0.123792824101008,1
1023,163,40,0.170158452553691,1
1023,164,40,0.205877523040497,1
1023,165,40,0.213740795319101,1
1023,166,40,0.22402086898387,1
1023,167,40,0.180163147754731,1
1024,133,40,0.223099918042432,1
1024,134,40,0.200624993581608,1
1024,163,40,0.12561799105693,1
1024,164,40,0.160826911251138,1
1024,165,40,0.229772690464667,1
1024,166,40,0.299402894037693,1
1024,167,40,0.252720291229655,1
1014,150,41,0.116392064690986,1
1014,151,41,0.117895817412973,1
1014,152,41,0.122698788556165,1
1014,153,41,0.124103827585171,1
1015,147,41,0.128618477488614,1
1015,148,41,0.139249030693246,1
1015,149,41,0.141079697445711,1
1015,150,41,0.145919176874305,1
1015,151,41,0.147448520726672,1
1015,152,41,0.142245442329204,1
1015,153,41,0.134363444833249,1
1015,154,41,0.127319053396217,1
1016,146,41,0.144203358121595,1
1016,147,41,0.166633789581694,1
1016,148,41,0.164502176788852,1
1016,149,41,0.15964840024462,1
1016,150,41,0.165055147767167,1
1016,151,41,0.166941424882107,1
1016,152,41,0.153115160133819,1
1016,153,41,0.136215003746457,1
1016,154,41,0.133861267479107,1
1016,155,41,0.118505953300109,1
1016,158,41,0.1186861982382,1
1016,159,41,0.118644095941324,1
1017,145,41,0.147549307148115,1
1017,146,41,0.159876011738803,1
1017,147,41,0.172653935183331,1
1017,148,41,0.172672813499944,1
1017,149,41,0.173186614621083,1
1017,150,41,0.169420796758705,1
1017,151,41,0.163922213233071,1
1017,152,41,0.150495831978601,1
1017,153,41,0.131715239801964,1
1017,154,41,0.125550415398337,1
1017,158,41,0.13234394780719,1
1017,159,41,0.14356290858071,1
1017,160,41,0.136322667857795,1
1017,161,41,0.123144224968671,1
1018,143,41,0.127886227275241,1
1018,144,41,0.139860685796129,1
1018,145,41,0.143598050749626,1
1018,146,41,0.147783019059021,1
1018,147,41,0.150183309278691,1
1018,148,41,0.153611979013813,1
1018,149,41,0.160562603041691,1
1018,150,41,0.14908035864609,1
1018,151,41,0.138182588346047,1
1018,152,41,0.12867405252049,1
1018,153,41,0.11604496511174,1
1018,159,41,0.123286218645154,1
1018,160,41,0.129334628725812,1
1018,161,41,0.135333199108463,1
1018,162,41,0.140590462867588,1
1018,163,41,0.131026257795226,1
1019,143,41,0.119026007937231,1
1019,144,41,0.121951110647992,1
1019,145,41,0.125417065941689,1
1019,146,41,0.138361467167651,1
1019,147,41,0.141077342072459,1
1019,148,41,0.132953801049535,1
1019,149,41,0.130804805602095,1
1019,150,41,0.122282664763776,1
1019,161,41,0.122199732071582,1
1019,162,41,0.1451984208824,1
1019,163,41,0.147261398098686,1
1019,164,41,0.118763266050997,1
1020,138,41,0.119015126112808,1
1020,139,41,0.131292473857006,1
1020,140,41,0.122539424001951,1
1020,146,41,0.116445767201126,1
1020,147,41,0.12861329566746,1
1020,148,41,0.122241539946801,1
1020,162,41,0.119950279954954,1
1020,163,41,0.138682928509052,1
1020,164,41,0.133734371745169,1
1021,134,41,0.125803217609449,1
1021,135,41,0.14514588428202,1
1021,137,41,0.130051521905584,1
1021,138,41,0.146370525273673,1
1021,139,41,0.161936892672895,1
1021,140,41,0.149644046572701,1
1021,141,41,0.120932058410619,1
1021,163,41,0.144976214969829,1
1021,164,41,0.172830234871226,1
1021,165,41,0.144543532903481,1
1022,133,41,0.152782828744862,1
1022,134,41,0.188976412726967,1
1022,135,41,0.188795531838098,1
1022,136,41,0.15570331492405,1
1022,137,41,0.131739076179272,1
1022,138,41,0.133845557139518,1
1022,139,41,0.146220240683345,1
1022,140,41,0.139874606052047,1
1022,163,41,0.163551359714582,1
1022,164,41,0.221670300693544,1
1022,165,41,0.19235729193881,1
1022,166,41,0.145590178338499,1
1023,132,41,0.143407418615495,1
1023,133,41,0.218143718092347,1
1023,134,41,0.226823621831069,1
1023,135,41,0.179080370894031,1
1023,163,41,0.132160452454012,1
1023,164,41,0.184622269733765,1
1023,165,41,0.211461641945768,1
1023,166,41,0.225393768944856,1
1023,167,41,0.180834911982999,1
1024,133,41,0.208244955803305,1
1024,134,41,0.189189715328647,1
1024,164,41,0.139161481469478,1
1024,165,41,0.216243921134943,1
1024,166,41,0.296235058336471,1
1024,167,41,0.256157393201017,1
1014,151,42,0.114380387504123,1
1014,152,42,0.121342211331814,1
1014,153,42,0.119342393449274,1
1015,147,42,0.123834879290418,1
1015,148,42,0.132137522895406,1
1015,149,42,0.134954879056765,1
1015,150,42,0.140443840882666,1
1015,151,42,0.142815089350142,1
1015,152,42,0.139906274045417,1
1015,153,42,0.129756299422208,1
1015,154,42,0.124062961859253,1
1016,145,42,0.147887150110481,1
1016,146,42,0.145471773725133,1
1016,147,42,0.162052235301034,1
1016,148,42,0.154233832882876,1
1016,149,42,0.147887362094074,1
1016,150,42,0.156497346577817,1
1016,151,42,0.160211499327918,1
1016,152,42,0.148097037420945,1
1016,153,42,0.131506176872138,1
1016,154,42,0.132305037041071,1
1016,155,42,0.119522332188842,1
1016,158,42,0.123050257352792,1
1016,159,42,0.124473432755837,1
1017,142,42,0.132332477139454,1
1017,146,42,0.166608469319238,1
1017,147,42,0.17174867102775,1
1017,148,42,0.162590073006207,1
1017,149,42,0.157370989847493,1
1017,150,42,0.158632245116346,1
1017,151,42,0.156430453977467,1
1017,152,42,0.145606760166191,1
1017,153,42,0.127289717222367,1
1017,154,42,0.124078189347325,1
1017,155,42,0.113779932201052,1
1017,158,42,0.135512395905457,1
1017,159,42,0.149687809407719,1
1017,160,42,0.137853236504253,1
1017,161,42,0.119683745917785,1
1018,142,42,0.126699119156354,1
1018,143,42,0.159562405567198,1
1018,145,42,0.16937771698193,1
1018,146,42,0.152062237629085,1
1018,147,42,0.14950000372149,1
1018,148,42,0.145048536705524,1
1018,149,42,0.144362840444472,1
1018,150,42,0.134634713170654,1
1018,151,42,0.125387929974565,1
1018,152,42,0.118577792184287,1
1018,159,42,0.120158271189951,1
1018,160,42,0.122736945602843,1
1018,161,42,0.123616807057904,1
1018,162,42,0.129223996844177,1
1018,163,42,0.120482264557596,1
1019,142,42,0.115715354178889,1
1019,143,42,0.124618111557826,1
1019,144,42,0.130478869051517,1
1019,145,42,0.131763984251409,1
1019,146,42,0.138303748746117,1
1019,147,42,0.137584193994571,1
1019,148,42,0.12568806341117,1
1019,149,42,0.117753223116311,1
1019,162,42,0.122710530091825,1
1019,163,42,0.128242147727314,1
1020,138,42,0.12865277172316,1
1020,139,42,0.13567428070905,1
1020,140,42,0.123183430156447,1
1020,147,42,0.11778174668639,1
1020,163,42,0.117116271304704,1
1020,164,42,0.11395266349847,1
1021,134,42,0.148733341504908,1
1021,135,42,0.17740041269908,1
1021,136,42,0.1574930452894,1
1021,137,42,0.146328210993205,1
1021,138,42,0.166806885961966,1
1021,139,42,0.172703586451479,1
1021,140,42,0.140839626027025,1
1021,163,42,0.122560198394031,1
1021,164,42,0.147216598899438,1
1021,165,42,0.125584485872424,1
1022,133,42,0.159805256326321,1
1022,134,42,0.207554171936029,1
1022,135,42,0.21570406958564,1
1022,136,42,0.172747043087973,1
1022,137,42,0.140966239116174,1
1022,138,42,0.142718024418437,1
1022,139,42,0.144520968427729,1
1022,140,42,0.120584852839577,1
1022,163,42,0.127072587139153,1
1022,164,42,0.182037012052633,1
1022,165,42,0.169933267093957,1
1022,166,42,0.131977487059815,1
1023,132,42,0.136821288598326,1
1023,133,42,0.199790908805695,1
1023,134,42,0.215720274553612,1
1023,135,42,0.177963205583855,1
1023,136,42,0.13300978827173,1
1023,164,42,0.152301661320126,1
1023,165,42,0.190156678486558,1
1023,166,42,0.205384166559183,1
1023,167,42,0.165412446112593,1
1024,133,42,0.186198403075778,1
1024,134,42,0.167443508021318,1
1024,135,42,0.119562750393842,1
1024,164,42,0.114877241714716,1
1024,165,42,0.187895378842473,1
1024,166,42,0.262940043785447,1
1024,167,42,0.229187497980267,1
1014,151,43,0.115151206954494,1
1014,152,43,0.119520671650699,1
1015,147,43,0.121392263013414,1
1015,148,43,0.128659284330201,1
1015,149,43,0.136845937579406,1
1015,150,43,0.140412467310952,1
1015,151,43,0.141860892315256,1
1015,152,43,0.141831391265277,1
1015,153,43,0.128823171201059,1
1015,154,43,0.119763333979962,1
1016,146,43,0.147911681322898,1
1016,147,43,0.156837038508186,1
1016,148,43,0.150413052385668,1
1016,149,43,0.148910642226434,1
1016,150,43,0.152271253451446,1
1016,151,43,0.154276217824541,1
1016,152,43,0.148587932537211,1
1016,153,43,0.134561355070728,1
1016,154,43,0.131446185515415,1
1016,155,43,0.122258039336429,1
1016,156,43,0.115600411964203,1
1016,157,43,0.124063056074183,1
1016,158,43,0.137195262986374,1
1016,159,43,0.13339187692063,1
1017,141,43,0.117755790473156,1
1017,147,43,0.169366634950781,1
1017,148,43,0.156282371661129,1
1017,149,43,0.151077938924041,1
1017,150,43,0.150247410761738,1
1017,151,43,0.148095023576815,1
1017,152,43,0.142499351565744,1
1017,153,43,0.127749815833365,1
1017,154,43,0.124065329009371,1
1017,155,43,0.116864364135429,1
1017,157,43,0.123725672409601,1
1017,158,43,0.147459002137643,1
1017,159,43,0.158253030022812,1
1017,160,43,0.135856127300952,1
1017,161,43,0.114027670359672,1
1018,141,43,0.118635027754305,1
1018,142,43,0.142804984798892,1
1018,146,43,0.156933008191329,1
1018,147,43,0.15385865725447,1
1018,148,43,0.140574293230214,1
1018,149,43,0.134901306092154,1
1018,150,43,0.127268565970566,1
1018,151,43,0.119032214345749,1
1018,159,43,0.115564174546725,1
1018,160,43,0.116165171585644,1
1018,161,43,0.11787039115872,1
1018,162,43,0.121601997224617,1
1019,140,43,0.118165472319701,1
1019,141,43,0.123267199006146,1
1019,142,43,0.119106726578569,1
1019,143,43,0.124519857162629,1
1019,145,43,0.13353482452328,1
1019,146,43,0.137284790723673,1
1019,147,43,0.135602736246528,1
1019,148,43,0.119408826751839,1
1019,163,43,0.115941411126727,1
1020,136,43,0.1142135917473,1
1020,137,43,0.121063429353736,1
1020,138,43,0.138329434091427,1
1020,139,43,0.146554821453757,1
1020,140,43,0.131700813140797,1
1021,133,43,0.127769023902234,1
1021,134,43,0.175599352988389,1
1021,135,43,0.213625782443217,1
1021,136,43,0.188224436262611,1
1021,137,43,0.170764654967496,1
1021,138,43,0.183008497527188,1
1021,139,43,0.179041130375657,1
1021,140,43,0.135962861039856,1
1021,164,43,0.127763359229563,1
1021,165,43,0.114174892964773,1
1022,133,43,0.167093370010578,1
1022,134,43,0.225015543108088,1
1022,135,43,0.245878614991536,1
1022,136,43,0.201259083614714,1
1022,137,43,0.162973150911873,1
1022,138,43,0.151326842992421,1
1022,139,43,0.137764203395336,1
1022,164,43,0.145619432074286,1
1022,165,43,0.150346607306236,1
1022,166,43,0.125638270820628,1
1023,132,43,0.13835438927103,1
1023,133,43,0.18271661967383,1
1023,134,43,0.201791539292007,1
1023,135,43,0.18130775316329,1
1023,136,43,0.143655780948026,1
1023,137,43,0.115404068049937,1
1023,164,43,0.126098734514481,1
1023,165,43,0.168614564271494,1
1023,166,43,0.186414072827576,1
1023,167,43,0.153299703628094,1
1024,133,43,0.167453930547957,1
1024,134,43,0.144905907078264,1
1024,165,43,0.165651398728984,1
1024,166,43,0.227156106319287,1
1014,150,44,0.116015464061762,1
1014,151,44,0.119710220313135,1
1014,152,44,0.118538375012919,1
1015,145,44,0.134612867083744,1
1015,146,44,0.118408252417626,1
1015,147,44,0.118802836321627,1
1015,148,44,0.127199553534289,1
1015,149,44,0.137354050474141,1
1015,150,44,0.140355903022311,1
1015,151,44,0.142489576766749,1
1015,152,44,0.143966160258277,1
1015,153,44,0.131449753905892,1
1015,154,44,0.119337058528858,1
1016,141,44,0.133382431873891,1
1016,146,44,0.1468538596418,1
1016,147,44,0.144968713106022,1
1016,148,44,0.146079825106941,1
1016,149,44,0.14781903271604,1
1016,150,44,0.143995814407517,1
1016,151,44,0.14440814604897,1
1016,152,44,0.147197037524582,1
1016,153,44,0.14073428195834,1
1016,154,44,0.132286759344637,1
1016,155,44,0.128795860648204,1
1016,156,44,0.137015383131137,1
1016,157,44,0.148210990378866,1
1016,158,44,0.147036954581526,1
1016,159,44,0.129183213556322,1
1017,147,44,0.154669188297865,1
1017,148,44,0.146953904120669,1
1017,149,44,0.142294198555516,1
1017,150,44,0.135531921949714,1
1017,151,44,0.132322466803134,1
1017,152,44,0.133553537963765,1
1017,153,44,0.127876417145648,1
1017,154,44,0.122219140347176,1
1017,155,44,0.118465817739899,1
1017,156,44,0.124144881740949,1
1017,157,44,0.139380307421433,1
1017,158,44,0.154316412269083,1
1017,159,44,0.152134700687175,1
1017,160,44,0.123114370612705,1
1018,140,44,0.118814624964752,1
1018,146,44,0.152357224575135,1
1018,147,44,0.149279611446323,1
1018,148,44,0.133860301776074,1
1018,149,44,0.123571689883267,1
1018,150,44,0.114324129414005,1
1019,139,44,0.116719320250585,1
1019,140,44,0.133607358242567,1
1019,141,44,0.137127475344188,1
1019,142,44,0.12493483859899,1
1019,145,44,0.126904013075525,1
1019,146,44,0.128645128536958,1
1019,147,44,0.127009957764389,1
1020,135,44,0.125048579573318,1
1020,136,44,0.130251622640187,1
1020,137,44,0.132339484374878,1
1020,138,44,0.145778231338919,1
1020,139,44,0.159353330860505,1
1020,140,44,0.142767711017183,1
1020,141,44,0.116333686764941,1
1021,133,44,0.136270178364879,1
1021,134,44,0.192138407102524,1
1021,135,44,0.22903315037108,1
1021,136,44,0.212065418325124,1
1021,137,44,0.191677919854939,1
1021,138,44,0.184868288469911,1
1021,139,44,0.171961997183162,1
1021,140,44,0.128238202477118,1
1022,132,44,0.11663179458055,1
1022,133,44,0.170651137753628,1
1022,134,44,0.23732291008438,1
1022,135,44,0.259488668252178,1
1022,136,44,0.221454666272346,1
1022,137,44,0.181829845198275,1
1022,138,44,0.150752885638432,1
1022,139,44,0.122105234496721,1
1022,165,44,0.127759578855494,1
1022,166,44,0.115007717615997,1
1023,132,44,0.146202551830224,1
1023,133,44,0.169783076718558,1
1023,134,44,0.190337088300776,1
1023,135,44,0.181155183860907,1
1023,136,44,0.150036522417642,1
1023,137,44,0.120051502120448,1
1023,165,44,0.143562013538874,1
1023,166,44,0.161925681096217,1
1023,167,44,0.142547153865888,1
1024,133,44,0.154731158168119,1
1024,134,44,0.127817956781539,1
1024,165,44,0.143303099134174,1
1024,166,44,0.186587640282498,1
1014,150,45,0.122140930178352,1
1014,151,45,0.125847486849716,1
1014,152,45,0.12080440895724,1
1015,146,45,0.123339579626172,1
1015,147,45,0.115806495346866,1
1015,148,45,0.12770705403198,1
1015,149,45,0.140510439061359,1
1015,150,45,0.146238718586505,1
1015,151,45,0.151981754525072,1
1015,152,45,0.157501183103984,1
1015,153,45,0.148618175529763,1
1015,154,45,0.130015649570959,1
1015,155,45,0.118003940822095,1
1015,156,45,0.114874097291424,1
1016,147,45,0.130542075492728,1
1016,148,45,0.138299532627996,1
1016,149,45,0.146670894247604,1
1016,150,45,0.144594267643324,1
1016,151,45,0.150299393849404,1
1016,152,45,0.163157541306887,1
1016,153,45,0.16092942887192,1
1016,154,45,0.141858160082284,1
1016,155,45,0.133807035009985,1
1016,156,45,0.145733797222525,1
1016,157,45,0.155463961894206,1
1016,158,45,0.141138334462813,1
1016,159,45,0.118381624923015,1
1017,147,45,0.133705636191497,1
1017,148,45,0.129399024630515,1
1017,149,45,0.130345708024728,1
1017,150,45,0.126387809473669,1
1017,151,45,0.128005338500583,1
1017,152,45,0.136045911500713,1
1017,153,45,0.133883596417534,1
1017,154,45,0.121082790521865,1
1017,155,45,0.114285713276269,1
1017,156,45,0.122495154761684,1
1017,157,45,0.139608766849987,1
1017,158,45,0.146627202073784,1
1017,159,45,0.136960526488104,1
1018,146,45,0.141192661146865,1
1018,147,45,0.130593575728877,1
1018,148,45,0.114024667258776,1
1019,139,45,0.127140445442536,1
1019,140,45,0.144005271231123,1
1019,145,45,0.122614760615408,1
1019,146,45,0.117694279900686,1
1020,134,45,0.115324927508677,1
1020,135,45,0.145825409465152,1
1020,136,45,0.164620475410421,1
1020,137,45,0.157913385199909,1
1020,138,45,0.154109139422928,1
1020,139,45,0.162920520096563,1
1020,140,45,0.144850120062796,1
1020,141,45,0.11448972393047,1
1021,133,45,0.14317675691295,1
1021,134,45,0.204982175006305,1
1021,135,45,0.243049670393778,1
1021,136,45,0.250028664892474,1
1021,137,45,0.22476380081494,1
1021,138,45,0.182883768736641,1
1021,139,45,0.154848243772464,1
1021,140,45,0.117704631766128,1
1022,132,45,0.13400700619906,1
1022,133,45,0.181971332469508,1
1022,134,45,0.253771235220857,1
1022,135,45,0.26850725111077,1
1022,136,45,0.243907921299254,1
1022,137,45,0.204405108559624,1
1022,138,45,0.146691503763557,1
1023,132,45,0.162648816015106,1
1023,133,45,0.171084867961073,1
1023,134,45,0.188025383669104,1
1023,135,45,0.178287022298507,1
1023,136,45,0.154031105907097,1
1023,137,45,0.125473842213923,1
1023,165,45,0.127164658679565,1
1023,166,45,0.144388702442776,1
1024,133,45,0.151052748207113,1
1024,134,45,0.11961737149955,1
1024,165,45,0.135098462610193,1
1014,150,46,0.118709657755787,1
1014,151,46,0.122572246128214,1
1014,152,46,0.119196642952455,1
1014,153,46,0.113938896341813,1
1015,146,46,0.127676634386433,1
1015,148,46,0.123919213429698,1
1015,149,46,0.133737763482651,1
1015,150,46,0.14100232343439,1
1015,151,46,0.149875697532012,1
1015,152,46,0.162035288390488,1
1015,153,46,0.164065196166319,1
1015,154,46,0.143292087764222,1
1015,155,46,0.120378769456914,1
1015,156,46,0.113793828903237,1
1015,157,46,0.1149508235751,1
1016,140,46,0.116398247545772,1
1016,147,46,0.122190204586778,1
1016,148,46,0.128979567984975,1
1016,149,46,0.136461646656515,1
1016,150,46,0.137367487878543,1
1016,151,46,0.146875587960048,1
1016,152,46,0.16644467666331,1
1016,153,46,0.170669285904533,1
1016,154,46,0.147770276489729,1
1016,155,46,0.132694886644836,1
1016,156,46,0.14221621214715,1
1016,157,46,0.152909865801196,1
1016,158,46,0.138740434946993,1
1016,159,46,0.117470024813386,1
1017,147,46,0.120510152176897,1
1017,148,46,0.115836208380437,1
1017,149,46,0.115965706801819,1
1017,150,46,0.114310008951361,1
1017,151,46,0.118394285054243,1
1017,152,46,0.128626839063658,1
1017,153,46,0.129274142740707,1
1017,154,46,0.114911217973872,1
1017,156,46,0.116395091345614,1
1017,157,46,0.132850918345899,1
1017,158,46,0.133911578251765,1
1017,159,46,0.121753059088118,1
1018,139,46,0.117412624367241,1
1018,146,46,0.130685199748371,1
1019,138,46,0.116945871826806,1
1019,139,46,0.132104288578823,1
1019,140,46,0.14472035077349,1
1019,145,46,0.117287377394578,1
1020,134,46,0.117978832543231,1
1020,135,46,0.153255728809484,1
1020,136,46,0.18901310944223,1
1020,137,46,0.177432622428297,1
1020,138,46,0.153827872526069,1
1020,139,46,0.149624084784392,1
1020,140,46,0.132618572551479,1
1021,132,46,0.130892978999775,1
1021,133,46,0.161892929631151,1
1021,134,46,0.202312877607551,1
1021,135,46,0.23269083304747,1
1021,136,46,0.262121528026728,1
1021,137,46,0.232043482262956,1
1021,138,46,0.165362794844446,1
1021,139,46,0.128552044186048,1
1022,131,46,0.13520172217355,1
1022,132,46,0.18095855730185,1
1022,133,46,0.214038443836926,1
1022,134,46,0.256348531740398,1
1022,135,46,0.255038426030304,1
1022,136,46,0.242581963927176,1
1022,137,46,0.200465228613941,1
1022,138,46,0.129610878677644,1
1023,131,46,0.17766574549589,1
1023,132,46,0.194225138258055,1
1023,133,46,0.188860281048789,1
1023,134,46,0.18397070283113,1
1023,135,46,0.166182099653204,1
1023,136,46,0.147443197583123,1
1023,137,46,0.120687123146168,1
1023,165,46,0.11571147958989,1
1023,166,46,0.130966596190758,1
1024,132,46,0.187881811892543,1
1024,133,46,0.156190382558781,1
1024,134,46,0.119982289477445,1
1024,165,46,0.129284211961358,1
1013,156,47,0.116950241044188,1
1014,151,47,0.118667991202964,1
1014,152,47,0.12378545178273,1
1014,153,47,0.125716151237197,1
1015,146,47,0.134229753847479,1
1015,147,47,0.115225118567134,1
1015,148,47,0.120525815409021,1
1015,149,47,0.126263987501824,1
1015,150,47,0.132499331780608,1
1015,151,47,0.146736149863544,1
1015,152,47,0.175617748453485,1
1015,153,47,0.193566246144607,1
1015,154,47,0.16301994040152,1
1015,155,47,0.121933775100859,1
1015,156,47,0.115888627212155,1
1015,157,47,0.134583106942708,1
1015,158,47,0.141536663410285,1
1016,147,47,0.125181505062781,1
1016,148,47,0.124905219780349,1
1016,149,47,0.125188347422077,1
1016,150,47,0.124176066882802,1
1016,151,47,0.137061100925954,1
1016,152,47,0.167661862898622,1
1016,153,47,0.184266749695144,1
1016,154,47,0.158939044259253,1
1016,155,47,0.131606103582344,1
1016,156,47,0.131456101636805,1
1016,157,47,0.142145374296603,1
1016,158,47,0.141490698301277,1
1016,159,47,0.119931448745806,1
1017,146,47,0.143562060646339,1
1017,147,47,0.119757492654297,1
1017,152,47,0.115388722793201,1
1017,153,47,0.120945766682944,1
1017,157,47,0.115370480427366,1
1017,158,47,0.115876414601844,1
1018,138,47,0.126533312656297,1
1018,146,47,0.123837929498779,1
1019,136,47,0.124643431820282,1
1019,137,47,0.133017325466135,1
1019,138,47,0.130975617270313,1
1019,139,47,0.134069058507377,1
1020,134,47,0.127844925805271,1
1020,135,47,0.165074096744978,1
1020,136,47,0.214833782722847,1
1020,137,47,0.198018937954664,1
1020,138,47,0.150822757785945,1
1020,139,47,0.1283445946869,1
1021,131,47,0.119020908554141,1
1021,132,47,0.183970055103486,1
1021,133,47,0.209324658901912,1
1021,134,47,0.212634735593807,1
1021,135,47,0.238912575045725,1
1021,136,47,0.275970816548551,1
1021,137,47,0.229212488490469,1
1021,138,47,0.147327560533328,1
1022,131,47,0.187483259184613,1
1022,132,47,0.259923470154453,3
1022,133,47,0.270580285770842,3
1022,134,47,0.259364021899695,1
1022,135,47,0.254449724039759,1
1022,136,47,0.250563499496751,1
1022,137,47,0.190916357021448,1
1023,130,47,0.146729813909497,1
1023,131,47,0.201469630429689,1
1023,132,47,0.226807040003377,1
1023,133,47,0.215481109953628,1
1023,134,47,0.184864143012988,1
1023,135,47,0.163704894719997,1
1023,136,47,0.149539515107788,1
1023,137,47,0.117582988514541,1
1024,131,47,0.187575801799675,1
1024,132,47,0.182270288219488,1
1024,133,47,0.16627692698032,1
1024,134,47,0.129201349930361,1
1013,156,48,0.116648293970179,1
1014,145,48,0.114946960762968,1
1014,151,48,0.121460498176517,1
1014,152,48,0.133980802671634,1
1014,153,48,0.135119920060516,1
1014,156,48,0.117344671848927,1
1014,157,48,0.148484614089522,1
1014,158,48,0.139504035178347,1
1015,146,48,0.139327040655344,1
1015,147,48,0.115513428030016,1
1015,148,48,0.115958310929808,1
1015,149,48,0.12011420215641,1
1015,150,48,0.127880197519717,1
1015,151,48,0.151097323645903,1
1015,152,48,0.193976516834465,1
1015,153,48,0.213745435404407,1
1015,154,48,0.168551251838487,1
1015,155,48,0.120458593056416,1
1015,156,48,0.12670155696767,1
1015,157,48,0.176453293560815,1
1015,158,48,0.192573644748851,1
1015,159,48,0.134407725850382,1
1016,139,48,0.127327803607848,1
1016,147,48,0.127448210288478,1
1016,148,48,0.120247881365314,1
1016,149,48,0.115331604991846,1
1016,150,48,0.114192275619371,1
1016,151,48,0.129917077200373,1
1016,152,48,0.164725642826112,1
1016,153,48,0.185873750203622,1
1016,154,48,0.159085466037449,1
1016,155,48,0.126137032883554,1
1016,156,48,0.120931975972555,1
1016,157,48,0.142132796603439,1
1016,158,48,0.157675857584335,1
1016,159,48,0.129705352698773,1
1017,138,48,0.151539026791805,1
1017,146,48,0.146485102405505,1
1017,147,48,0.120061642002297,1
1018,137,48,0.126066289247938,1
1018,146,48,0.122227584360284,1
1019,136,48,0.14626983306716,1
1019,137,48,0.158350036070186,1
1019,138,48,0.149400194779946,1
1019,139,48,0.143362525201316,1
1020,132,48,0.120781067208315,1
1020,133,48,0.136025796613143,1
1020,134,48,0.135546254395951,1
1020,135,48,0.165640210706038,1
1020,136,48,0.21795971633392,1
1020,137,48,0.199828641885188,1
1020,138,48,0.144787325811904,1
1020,139,48,0.114210388439677,1
1021,131,48,0.168624845475738,1
1021,132,48,0.26437990700798,3
1021,133,48,0.265857903723459,3
1021,134,48,0.217053557136503,1
1021,135,48,0.231080511462707,1
1021,136,48,0.26073195202312,1
1021,137,48,0.202107347737603,1
1021,138,48,0.127617608732744,1
1022,130,48,0.13587776140427,1
1022,131,48,0.259851984576262,3
1022,132,48,0.362085618006131,3
1022,133,48,0.323728341047495,3
1022,134,48,0.242781534702798,3
1022,135,48,0.234166945464347,1
1022,136,48,0.2337457811732,1
1022,137,48,0.163194591328138,1
1023,130,48,0.158970170516775,1
1023,131,48,0.220188464719665,1
1023,132,48,0.25596759722439,3
1023,133,48,0.228321262359468,3
1023,134,48,0.171580933121626,1
1023,135,48,0.148457668619522,1
1023,136,48,0.137312207268324,1
1024,131,48,0.17138389437225,1
1024,132,48,0.17255704690462,1
1024,133,48,0.167170967782357,1
1024,134,48,0.129395691777364,1
1014,145,49,0.118968843028411,1
1014,151,49,0.124717991160567,1
1014,152,49,0.138605601605196,1
1014,153,49,0.133944117733238,1
1014,156,49,0.125534516628888,1
1014,157,49,0.162706616874704,1
1014,158,49,0.14642008232689,1
1015,146,49,0.147242896641794,1
1015,147,49,0.121576629854695,1
1015,148,49,0.118024585668647,1
1015,149,49,0.119592180782623,1
1015,150,49,0.127885838638655,1
1015,151,49,0.157877371542889,1
1015,152,49,0.203637374648213,1
1015,153,49,0.20974349137354,1
1015,154,49,0.158428081362883,1
1015,155,49,0.116312547290006,1
1015,156,49,0.127003539372278,1
1015,157,49,0.187900996407679,1
1015,158,49,0.203169008677101,1
1015,159,49,0.130559151948803,1
1016,138,49,0.115660108899269,1
1016,147,49,0.134291205535617,1
1016,148,49,0.121365670849401,1
1016,151,49,0.124489107764827,1
1016,152,49,0.16015290941828,1
1016,153,49,0.180153573162463,1
1016,154,49,0.156541556933752,1
1016,155,49,0.124019799644414,1
1016,157,49,0.134148999875542,1
1016,158,49,0.155582048532183,1
1016,159,49,0.126391130549954,1
1017,137,49,0.141013181705081,1
1017,146,49,0.15285816535832,1
1017,147,49,0.125084534346006,1
1018,136,49,0.137434745561747,1
1018,146,49,0.129163699288932,1
1019,135,49,0.116198005488773,1
1019,136,49,0.175277550117868,1
1020,132,49,0.136307805452576,1
1020,133,49,0.143424612840233,1
1020,134,49,0.137563820015943,1
1020,135,49,0.163251261608575,1
1020,136,49,0.212956762224788,1
1020,137,49,0.202558119070524,1
1020,138,49,0.153558417826068,1
1020,139,49,0.114457337548258,1
1021,131,49,0.214600247464935,1
1021,132,49,0.315201677892533,3
1021,133,49,0.278505127506247,3
1021,134,49,0.20542399592087,1
1021,135,49,0.21487825216984,1
1021,136,49,0.235913925805177,1
1021,137,49,0.179052353729201,1
1021,138,49,0.117955149265185,1
1022,130,49,0.161436152096438,1
1022,131,49,0.319101704922796,3
1022,132,49,0.421781493154013,3
1022,133,49,0.326114781672445,3
1022,134,49,0.210915807748405,3
1022,135,49,0.204109415001598,1
1022,136,49,0.206415019216548,1
1022,137,49,0.141878557614644,1
1023,130,49,0.164024589531459,1
1023,131,49,0.228910082118675,1
1023,132,49,0.265952613281912,3
1023,133,49,0.217961082450406,3
1023,134,49,0.15319281678993,1
1023,135,49,0.13315578608274,1
1023,136,49,0.12564862268607,1
1024,131,49,0.153510662633388,1
1024,132,49,0.161764938648651,1
1024,133,49,0.159630805606429,1
1024,134,49,0.126521288475846,1
1014,145,50,0.119948254333957,1
1014,150,50,0.115588281791957,1
1014,151,50,0.129460617641048,1
1014,152,50,0.13862532785618,1
1014,153,50,0.126977288737387,1
1014,156,50,0.11877830510921,1
1014,157,50,0.147701016739261,1
1015,146,50,0.153513406643227,1
1015,147,50,0.128894256365797,1
1015,148,50,0.121376635111888,1
1015,149,50,0.12071198411084,1
1015,150,50,0.13060899164681,1
1015,151,50,0.161892152357978,1
1015,152,50,0.195647548164792,1
1015,153,50,0.183899488120863,1
1015,154,50,0.141806612738669,1
1015,156,50,0.118109437990041,1
1015,157,50,0.166377996046553,1
1015,158,50,0.175053907427613,1
1016,147,50,0.140951105843031,1
1016,148,50,0.122219399438234,1
1016,151,50,0.122226913078907,1
1016,152,50,0.151638105567641,1
1016,153,50,0.164058813104807,1
1016,154,50,0.147774845913837,1
1016,155,50,0.119141385895968,1
1016,157,50,0.120762177114835,1
1016,158,50,0.136054920803401,1
1017,136,50,0.123388324075617,1
1017,146,50,0.159684955637487,1
1017,147,50,0.129496266215214,1
1017,154,50,0.115911674539423,1
1018,135,50,0.114495035297152,1
1018,146,50,0.135955288514851,1
1019,135,50,0.135154862022706,1
1020,132,50,0.140066074343682,1
1020,133,50,0.142399012665219,1
1020,134,50,0.142120572216262,1
1020,135,50,0.167792845205153,1
1020,136,50,0.204304863874029,1
1020,139,50,0.114751441229339,1
1021,130,50,0.126039697083925,1
1021,131,50,0.233464219854685,3
1021,132,50,0.308020663030033,3
1021,133,50,0.251186660597969,1
1021,134,50,0.188169426520316,1
1021,135,50,0.1961285507134,1
1021,136,50,0.205986859466843,1
1021,137,50,0.159186947294001,1
1022,130,50,0.183171077165891,3
1022,131,50,0.335622151588242,3
1022,132,50,0.406468552139814,3
1022,133,50,0.28839183028424,3
1022,134,50,0.181629332273353,1
1022,135,50,0.172944329151541,1
1022,136,50,0.172083263575029,1
1022,137,50,0.125199488337558,1
1023,130,50,0.167596454183421,1
1023,131,50,0.224913461231357,3
1023,132,50,0.249746938697831,3
1023,133,50,0.193990142668726,1
1023,134,50,0.138099055033673,1
1023,135,50,0.121483898809773,1
1023,136,50,0.113771664840938,1
1024,131,50,0.138236491062913,1
1024,132,50,0.14567630256145,1
1024,133,50,0.140254739741148,1
1024,134,50,0.115035946764419,1
1011,150,51,0.114484600993647,1
1012,149,51,0.115658036170808,1
1012,150,51,0.120884727185125,1
1012,151,51,0.122730115020413,1
1012,152,51,0.119675961409188,1
1013,150,51,0.118176542573984,1
1013,151,51,0.122369106962116,1
1013,152,51,0.11910697389276,1
1014,144,51,0.120700595881168,1
1014,145,51,0.118069643958953,1
1014,150,51,0.115892725561613,1
1014,151,51,0.131000925755903,1
1014,152,51,0.135163647564935,1
1014,153,51,0.119330239723295,1
1014,157,51,0.119742394711754,1
1015,146,51,0.160691241751836,1
1015,147,51,0.137640393200358,1
1015,148,51,0.125979152214489,1
1015,149,51,0.120326491947591,1
1015,150,51,0.127323340175536,1
1015,151,51,0.152762713857292,1
1015,152,51,0.168084723058511,1
1015,153,51,0.150533258859572,1
1015,154,51,0.1225803486122,1
1015,157,51,0.130226679237451,1
1015,158,51,0.132024488533054,1
1016,147,51,0.151135810444837,1
1016,148,51,0.124770975281865,1
1016,151,51,0.117920360402256,1
1016,152,51,0.137736127346176,1
1016,153,51,0.145642467624688,1
1016,154,51,0.135656839170121,1
1017,146,51,0.173966137175619,1
1017,147,51,0.140018436919665,1
1017,154,51,0.123475190241142,1
1017,155,51,0.118351405484195,1
1018,134,51,0.116058802929594,1
1018,145,51,0.164568480545889,1
1018,146,51,0.145777112536625,1
1018,147,51,0.113810928913045,1
1019,134,51,0.132154905550004,1
1019,144,51,0.123342724049463,1
1019,145,51,0.117332188370693,1
1020,132,51,0.138132831086103,1
1020,133,51,0.14243181123775,1
1020,134,51,0.150859089418354,1
1020,135,51,0.174795016576646,1
1021,130,51,0.147347534098503,1
1021,131,51,0.231099495771116,1
1021,132,51,0.266751744318769,3
1021,133,51,0.216923210780751,1
1021,134,51,0.173224536130436,1
1021,135,51,0.175673712121947,1
1021,136,51,0.175820628528526,1
1021,137,51,0.142891109021843,1
1022,129,51,0.123148747285315,1
1022,130,51,0.207984475075393,1
1022,131,51,0.320464712316124,3
1022,132,51,0.344745430787875,3
1022,133,51,0.244283579779177,3
1022,134,51,0.164734758120597,1
1022,135,51,0.150243418404076,1
1022,136,51,0.141673569480543,1
1023,130,51,0.171800654115416,1
1023,131,51,0.215721146041715,1
1023,132,51,0.22360210717344,3
1023,133,51,0.173778837894639,1
1023,134,51,0.131398336107806,1
1023,135,51,0.115674347130576,1
1024,131,51,0.123174691721683,1
1024,132,51,0.128301326480265,1
1024,133,51,0.120423191796442,1
1012,148,52,0.118282934783766,1
1012,149,52,0.128644127503326,1
1012,150,52,0.132469936722427,1
1012,151,52,0.134037838034925,1
1012,152,52,0.12857886011052,1
1013,149,52,0.118954769673232,1
1013,150,52,0.12889915554216,1
1013,151,52,0.139304122873604,1
1013,152,52,0.136701612083404,1
1013,153,52,0.116316115680483,1
1014,144,52,0.119976801457769,1
1014,145,52,0.117842020687903,1
1014,150,52,0.118101264844858,1
1014,151,52,0.136292707510032,1
1014,152,52,0.140592629810979,1
1014,153,52,0.121702265463944,1
1015,146,52,0.161494965766534,1
1015,147,52,0.139218929023088,1
1015,148,52,0.125692891926336,1
1015,149,52,0.117453796291682,1
1015,150,52,0.120727776888494,1
1015,151,52,0.13836159671318,1
1015,152,52,0.143308834468042,1
1015,153,52,0.129622525998374,1
1016,147,52,0.157052778921181,1
1016,148,52,0.124633503922026,1
1016,152,52,0.124235905140263,1
1016,153,52,0.130204892034872,1
1016,154,52,0.124069238928968,1
1017,135,52,0.136658814951419,1
1017,147,52,0.154835218558382,1
1017,153,52,0.113798751633334,1
1017,154,52,0.125948826783873,1
1017,155,52,0.117717315451088,1
1018,134,52,0.157936232320451,1
1018,146,52,0.160239280955422,1
1018,147,52,0.121478846534148,1
1019,133,52,0.1304215981509,1
1019,144,52,0.129518324285717,1
1019,145,52,0.123646343438481,1
1020,131,52,0.117631744740852,1
1020,132,52,0.138136576129573,1
1020,133,52,0.15117092906002,1
1020,134,52,0.171269211248622,1
1021,130,52,0.161961576984574,1
1021,131,52,0.213769201120517,1
1021,132,52,0.223422698392853,1
1021,133,52,0.190630991775131,1
1021,134,52,0.161051554975024,1
1021,135,52,0.159997619659792,1
1022,129,52,0.140045299951602,1
1022,130,52,0.214728733075819,1
1022,131,52,0.276667747940014,1
1022,132,52,0.269434514452523,3
1022,133,52,0.202349197463093,1
1022,134,52,0.149132435948686,1
1022,135,52,0.133931846238596,1
1022,136,52,0.122671949077961,1
1023,130,52,0.167060065032798,1
1023,131,52,0.195387479627199,1
1023,132,52,0.191346636607079,1
1023,133,52,0.154511790480316,1
1023,134,52,0.125405277298564,1
1024,132,52,0.113936929605148,1
1012,148,53,0.13809654656116,1
1012,149,53,0.147042784130324,1
1012,150,53,0.146189809260932,1
1012,151,53,0.142500105285184,1
1012,152,53,0.1361569791264,1
1013,148,53,0.123258378133318,1
1013,149,53,0.129274001418312,1
1013,150,53,0.137199043360443,1
1013,151,53,0.152046927702949,1
1013,152,53,0.155480119754713,1
1013,153,53,0.133383338692593,1
1014,143,53,0.118682747616386,1
1014,144,53,0.116748939069226,1
1014,145,53,0.115842155697898,1
1014,150,53,0.1177410458366,1
1014,151,53,0.140039776601326,1
1014,152,53,0.151353764908688,1
1014,153,53,0.132840731356585,1
1015,146,53,0.16345292866639,1
1015,147,53,0.141222868808819,1
1015,148,53,0.123691248629526,1
1015,151,53,0.120445732718462,1
1015,152,53,0.127436986934933,1
1015,153,53,0.12073789321661,1
1016,147,53,0.172585075846316,1
1016,148,53,0.129037062646051,1
1016,153,53,0.124223456992627,1
1016,154,53,0.12651636574575,1
1017,134,53,0.118317723646694,1
1017,147,53,0.180393762349811,1
1017,148,53,0.118820395629219,1
1017,153,53,0.121472604795031,1
1017,154,53,0.132328920525844,1
1017,155,53,0.119787099696072,1
1018,133,53,0.147673364657285,1
1018,146,53,0.174769872967183,1
1018,147,53,0.129588396639956,1
1019,132,53,0.122032724331166,1
1019,144,53,0.132256115938632,1
1019,145,53,0.125064666772627,1
1020,131,53,0.123106609657841,1
1020,132,53,0.144226593878724,1
1020,133,53,0.165246568951338,1
1021,130,53,0.166836069036555,1
1021,131,53,0.198969919905061,1
1021,132,53,0.198428537363145,1
1021,133,53,0.175019318771411,1
1021,134,53,0.151416052754331,1
1022,129,53,0.146628697735799,1
1022,130,53,0.201625108618038,1
1022,131,53,0.230528341311297,1
1022,132,53,0.214069016581733,1
1022,133,53,0.173153227205239,1
1022,134,53,0.138283127453298,1
1022,135,53,0.126479445270029,1
1022,136,53,0.114583962414273,1
1023,130,53,0.157265857762401,1
1023,131,53,0.172409682977124,1
1023,132,53,0.164142711500035,1
1023,133,53,0.140138372525645,1
1023,134,53,0.121649022251588,1
1012,147,54,0.14235229383677,1
1012,148,54,0.151930454495649,1
1012,149,54,0.162712034233183,1
1012,150,54,0.160409468449728,1
1012,151,54,0.144645367466021,1
1013,147,54,0.125258090024062,1
1013,148,54,0.132015149478111,1
1013,149,54,0.128268209932345,1
1013,150,54,0.131476051648248,1
1013,151,54,0.148156651917947,1
1013,152,54,0.161591088548938,1
1013,153,54,0.148957384608616,1
1014,143,54,0.119823513766544,1
1014,144,54,0.117816582656784,1
1014,145,54,0.116244582994827,1
1014,146,54,0.114001725923304,1
1014,151,54,0.136427293537638,1
1014,152,54,0.153715085477909,1
1014,153,54,0.140215923189959,1
1015,146,54,0.157331443130596,1
1015,147,54,0.137714599234654,1
1015,148,54,0.117032278694547,1
1015,152,54,0.118319207531843,1
1015,153,54,0.114835551608159,1
1016,147,54,0.180080521261059,1
1016,148,54,0.13034478942916,1
1016,153,54,0.117813355795429,1
1016,154,54,0.124118148254541,1
1016,155,54,0.114581948570142,1
1017,148,54,0.122660042666173,1
1017,153,54,0.123653291789574,1
1017,154,54,0.131492339054284,1
1017,155,54,0.119039527779696,1
1018,147,54,0.128733407926434,1
1019,145,54,0.12123702036239,1
1020,132,54,0.158455627453062,1
1021,131,54,0.191675906010809,1
1021,132,54,0.190021197417117,1
1021,133,54,0.166886580015939,1
1022,131,54,0.192540528200931,1
1022,132,54,0.179930142455801,1
1022,133,54,0.151384302322897,1
1022,134,54,0.129017206849538,1
1022,135,54,0.120491474067011,1
1023,130,54,0.142941478678832,1
1023,131,54,0.148487593636686,1
1023,132,54,0.142480861885717,1
1023,133,54,0.128703035388353,1
1023,134,54,0.118253822370374,1
1012,145,55,0.119026726326073,1
1012,146,55,0.141516312985389,1
1012,147,55,0.157385498946724,1
1012,148,55,0.155212961543632,1
1012,149,55,0.163064091873124,1
1013,144,55,0.120480203606001,1
1013,145,55,0.119256822739037,1
1013,146,55,0.13443675582571,1
1013,147,55,0.14928131909193,1
1013,148,55,0.138464773838474,1
1013,149,55,0.122663505064853,1
1013,150,55,0.121374703705822,1
1013,151,55,0.136449657806663,1
1013,152,55,0.157566780249046,1
1014,142,55,0.121683116279407,1
1014,143,55,0.121635879268843,1
1014,144,55,0.119874601812375,1
1014,145,55,0.119370139746179,1
1014,146,55,0.125269819782855,1
1014,147,55,0.126975616422378,1
1014,148,55,0.114863957409576,1
1014,151,55,0.12895893491529,1
1014,152,55,0.148634957564182,1
1014,153,55,0.138704833480293,1
1015,146,55,0.152387279137828,1
1015,147,55,0.137721370932753,1
1015,148,55,0.114485684465343,1
1015,152,55,0.11630995637943,1
1016,147,55,0.180644951130245,1
1016,148,55,0.130100866975208,1
1016,153,55,0.113990690999619,1
1016,154,55,0.118131460729945,1
1017,148,55,0.121288697251534,1
1017,153,55,0.119476732162688,1
1017,154,55,0.125588124924098,1
1017,155,55,0.115591744190637,1
1018,147,55,0.120435981473199,1
1019,145,55,0.118094905337078,1
1020,140,55,0.122706101990111,1
1021,132,55,0.186156642308025,1
1022,132,55,0.155158976388702,1
1022,133,55,0.131847953307834,1
1022,134,55,0.116621725359899,1
1023,131,55,0.12795054074188,1
1023,132,55,0.12405563664844,1
1023,133,55,0.115272861982947,1
1013,143,56,0.127296229829408,1
1013,144,56,0.145306026109407,1
1013,145,56,0.152498806061299,1
1013,146,56,0.166816590099763,1
1013,147,56,0.166444535340915,1
1013,148,56,0.140222906871651,1
1013,149,56,0.119727779620726,1
1014,141,56,0.11914644994846,1
1014,142,56,0.123917705990816,1
1014,143,56,0.126596048022857,1
1014,144,56,0.126205621352646,1
1014,145,56,0.132091145596079,1
1014,146,56,0.149186350442419,1
1014,147,56,0.148300035264648,1
1014,148,56,0.120517465610844,1
1014,151,56,0.115507292282695,1
1014,152,56,0.133823899482468,1
1015,146,56,0.154356500721828,1
1015,147,56,0.143469906667864,1
1015,148,56,0.115380632086082,1
1016,147,56,0.175552127754691,1
1016,148,56,0.12909744263936,1
1017,148,56,0.118818216908961,1
1021,139,56,0.120103084794662,1
1022,133,56,0.115277549175718,1
1013,143,57,0.133003970499798,1
1013,145,57,0.181209404553163,1
1013,146,57,0.189418751823648,1
1013,147,57,0.168982167374896,1
1013,148,57,0.136919342786797,1
1014,141,57,0.114431875963407,1
1014,142,57,0.120683519425093,1
1014,143,57,0.124796389759252,1
1014,144,57,0.127930319862514,1
1014,145,57,0.143391343193051,1
1014,146,57,0.17213790823447,1
1014,147,57,0.164335133717837,1
1014,148,57,0.123434548275683,1
1015,146,57,0.157401456600505,1
1015,147,57,0.14807687542591,1
1015,148,57,0.117693679280507,1
1016,147,57,0.160732802312863,1
1016,148,57,0.122829323341777,1
1017,147,57,0.152767766132917,1
1018,146,57,0.146124000132278,1
1020,141,57,0.127537726248911,1
1021,139,57,0.144106575834681,1
1023,134,57,0.115515065014426,1
1023,135,57,0.122042581568224,1
1024,134,57,0.158825998120035,1
1024,135,57,0.176259905639979,1
1014,142,58,0.116468732090331,1
1014,143,58,0.119924253080522,1
1014,145,58,0.151014178970116,1
1014,146,58,0.184220761032403,1
1014,147,58,0.166247119731819,1
1014,148,58,0.121036636982997,1
1015,139,58,0.122705442485601,1
1015,140,58,0.123792600340549,1
1015,146,58,0.156047552724795,1
1015,147,58,0.14389012880971,1
1015,148,58,0.114220186792405,1
1016,147,58,0.139285432986852,1
1017,147,58,0.134405170270403,1
1018,146,58,0.138487244099295,1
1019,142,58,0.155541112145068,1
1019,145,58,0.11888599277428,1
1020,141,58,0.152670571655683,1
1021,140,58,0.120460194710227,1
1023,134,58,0.123422241450443,1
1023,135,58,0.133086844307661,1
1015,140,59,0.113883486186066,1
1015,141,59,0.129565396420153,1
1015,146,59,0.152459400666797,1
1015,147,59,0.13549441263068,1
1016,147,59,0.123403292472632,1
1017,147,59,0.120995076421969,1
1018,146,59,0.130840984135242,1
1019,143,59,0.149324799282158,1
1019,144,59,0.150909588620871,1
