x,y,z,signal,mito.p
166,251,21,0.265465286556123,2
166,252,21,0.250172625305621,2
165,251,22,0.224693893336828,2
165,252,22,0.21416544556266,2
166,250,22,0.211522033715943,2
166,251,22,0.345698037945817,2
166,252,22,0.326406565310873,2
166,253,22,0.251238478809508,2
167,251,22,0.237103177313723,2
167,252,22,0.253738000904275,2
164,253,23,0.217229527072142,3
165,251,23,0.261733998465616,2
165,252,23,0.259175804023147,2
166,250,23,0.271444660646772,2
166,251,23,0.398934231289551,2
166,252,23,0.380351608234724,2
166,253,23,0.264902941192265,2
167,251,23,0.258016559969829,2
167,252,23,0.263711404971665,2
163,253,24,0.298011268859356,3
164,252,24,0.217965039477469,3
164,253,24,0.328200865100331,3
164,254,24,0.300853615530917,3
165,250,24,0.239154589647343,2
165,251,24,0.260807747934361,2
165,252,24,0.282584704639492,2
165,253,24,0.267124223044802,3
166,249,24,0.254285083449461,2
166,250,24,0.336822284921211,2
166,251,24,0.385777022090292,2
166,252,24,0.380520229405818,2
166,253,24,0.261572820273998,2
167,250,24,0.238548764093258,2
167,251,24,0.2777971258605,2
167,252,24,0.299134499255655,2
163,253,25,0.298960366511152,3
163,254,25,0.307769627348861,3
164,252,25,0.246256840828304,3
164,253,25,0.38338822609209,3
164,254,25,0.333338358129604,3
164,255,25,0.19139001080551,3
165,250,25,0.272599641474505,2
165,251,25,0.23809952375295,2
165,252,25,0.278658344536274,2
165,253,25,0.302974370053068,3
165,254,25,0.241823463078912,3
166,249,25,0.271487693316082,2
166,250,25,0.348126262892253,2
166,251,25,0.324027708987793,2
166,252,25,0.352125003615498,2
166,253,25,0.268377964672981,2
167,250,25,0.236615874141667,2
167,251,25,0.286662020614415,2
167,252,25,0.361680069839643,2
167,253,25,0.259118686221792,2
168,252,25,0.220201466380015,2
163,253,26,0.258481157343738,3
163,254,26,0.275892288404337,3
163,255,26,0.201510260618282,1
163,256,26,0.152437849001543,1
164,251,26,0.168396456708381,1
164,252,26,0.242713370200892,3
164,253,26,0.374414960614862,3
164,254,26,0.318278713954899,3
164,255,26,0.194550792163843,3
164,256,26,0.16093877970373,1
165,249,26,0.209022158315188,1
165,250,26,0.284179480760793,1
165,251,26,0.225989277964098,1
165,252,26,0.259328361548664,2
165,253,26,0.326165587073485,3
165,254,26,0.253579319408304,3
165,255,26,0.179491607286922,1
165,256,26,0.194418867708012,1
165,257,26,0.178440298212865,1
166,249,26,0.24229974310415,1
166,250,26,0.304469490332088,2
166,251,26,0.260179664103047,2
166,252,26,0.307302698155432,2
166,253,26,0.282064379134446,2
166,254,26,0.20053744435784,1
166,255,26,0.169151754249023,1
166,256,26,0.226538150592956,1
166,257,26,0.25953780133821,1
167,251,26,0.266204308467595,2
167,252,26,0.374268974580718,2
167,253,26,0.2735661217809,2
167,254,26,0.176724903427341,1
167,255,26,0.171767572898096,1
167,256,26,0.225183528328404,1
167,257,26,0.282113206021955,1
168,252,26,0.243298209379304,2
168,253,26,0.174261088791071,1
168,254,26,0.160698496301452,1
168,255,26,0.204448423873724,1
168,256,26,0.209330688657436,1
175,246,26,0.165097167625979,1
162,254,27,0.155500328857213,1
162,255,27,0.178928590641688,1
162,256,27,0.149087354104648,1
163,251,27,0.11444215716765,1
163,252,27,0.135957961863492,1
163,253,27,0.196934053034903,1
163,254,27,0.220778815471486,1
163,255,27,0.196540175742878,1
163,256,27,0.162494162207396,1
163,257,27,0.119776206094783,1
164,249,27,0.187340723772283,1
164,250,27,0.211315067068311,1
164,251,27,0.183276868755493,1
164,252,27,0.210373294627328,1
164,253,27,0.300651972026834,3
164,254,27,0.27812504092461,3
164,255,27,0.19476224579752,1
164,256,27,0.158032767293174,1
164,257,27,0.143672256783922,1
165,248,27,0.161183102571135,1
165,249,27,0.218622141507245,1
165,250,27,0.26745520009414,1
165,251,27,0.212751185247374,1
165,252,27,0.230318783753088,1
165,253,27,0.315349548225278,3
165,254,27,0.268370521693506,1
165,255,27,0.169061672999009,1
165,256,27,0.161317394177084,1
165,257,27,0.215961464774592,1
166,248,27,0.142014038684085,1
166,249,27,0.195020865780563,1
166,250,27,0.227109469928903,1
166,251,27,0.202666536901303,1
166,252,27,0.255884240565011,2
166,253,27,0.287019024538184,1
166,254,27,0.216443421249367,1
166,255,27,0.145098906362513,1
166,256,27,0.183006907650243,1
167,249,27,0.128847337330622,1
167,250,27,0.157456760764456,1
167,251,27,0.212186884923717,1
167,252,27,0.305710300961115,2
167,253,27,0.250221829052851,1
167,254,27,0.166147369674607,1
167,255,27,0.153881292391419,1
167,256,27,0.189603259987324,1
167,257,27,0.254077951925701,1
168,251,27,0.159750175922828,1
168,252,27,0.209934323714397,1
168,253,27,0.155280808070149,1
168,254,27,0.145270895717357,1
168,255,27,0.194732155904228,1
168,256,27,0.17664101680898,1
168,257,27,0.158321088532922,1
169,254,27,0.127638759984545,1
169,255,27,0.17270528232022,1
169,256,27,0.135983682539401,1
171,245,27,0.190783407978252,1
173,247,27,0.120480486250791,1
174,247,27,0.137320144876182,1
174,257,27,0.117390330759413,1
175,245,27,0.138539910245205,1
175,246,27,0.140683924078218,1
175,248,27,0.157844054788243,1
175,257,27,0.131077981791834,1
176,245,27,0.117302051369937,1
178,245,27,0.125948932775669,1
178,246,27,0.176173322119244,1
178,248,27,0.139157006260299,1
178,258,27,0.137912956993051,1
178,259,27,0.148518472580016,1
179,245,27,0.123500486949866,1
179,246,27,0.20693680505301,1
179,248,27,0.123028729241271,1
179,258,27,0.174727476248652,1
179,259,27,0.173412306486067,1
180,248,27,0.169265330347223,1
180,258,27,0.171704448894948,1
180,259,27,0.142485713954616,1
181,248,27,0.17307553521853,1
181,258,27,0.153366078046329,1
182,246,27,0.201453543230379,1
182,247,27,0.217807936081577,1
182,248,27,0.129077822380173,1
182,258,27,0.121426781008418,1
183,246,27,0.180896905406985,1
183,247,27,0.194140792341909,1
183,248,27,0.117615834194536,1
183,258,27,0.140924172149897,1
184,246,27,0.220994520553882,1
184,248,27,0.159320025882726,1
184,257,27,0.155505969976151,1
184,258,27,0.232143043890308,1
185,257,27,0.20551090919386,1
186,248,27,0.142672530384079,1
186,257,27,0.189572640135051,1
161,255,28,0.122484308267859,1
161,256,28,0.119896612775413,1
162,254,28,0.123258272141521,1
162,255,28,0.157318877214298,1
162,256,28,0.149146320874006,1
163,249,28,0.156459919696847,1
163,250,28,0.138725301673851,1
163,251,28,0.117085427691973,1
163,252,28,0.11547019515398,1
163,253,28,0.13926343380068,1
163,254,28,0.165788811204492,1
163,255,28,0.180542833922915,1
163,256,28,0.156632144589015,1
163,257,28,0.119610682239515,1
164,248,28,0.209471799068949,1
164,249,28,0.227647978915452,1
164,250,28,0.211493274608539,1
164,251,28,0.172404901569423,1
164,252,28,0.161091278344915,1
164,253,28,0.206140194265533,1
164,254,28,0.221009241636706,1
164,255,28,0.180569520301857,1
164,256,28,0.145551126249985,1
164,257,28,0.158079109261902,1
165,248,28,0.197393256604066,1
165,249,28,0.213255588429238,1
165,250,28,0.214671756596859,1
165,251,28,0.180061183646662,1
165,252,28,0.182811399893481,1
165,253,28,0.253044249266702,1
165,254,28,0.241280667313044,1
165,255,28,0.149302529228062,1
165,256,28,0.140475461768571,1
166,248,28,0.135685315632735,1
166,249,28,0.14572018316513,1
166,250,28,0.152090596323036,1
166,251,28,0.1502764289602,1
166,252,28,0.192943096820256,1
166,253,28,0.245507266844664,1
166,254,28,0.197378182215255,1
166,255,28,0.117950968477663,1
166,256,28,0.144301612516793,1
166,257,28,0.274149971702546,1
167,251,28,0.146493157782026,1
167,252,28,0.198395585691352,1
167,253,28,0.190258642594626,1
167,254,28,0.139144499228333,1
167,255,28,0.124183133002557,1
167,256,28,0.144415483036649,1
167,257,28,0.194016334419286,1
167,258,28,0.158380644145593,1
168,251,28,0.123045899912276,1
168,252,28,0.141345442432841,1
168,253,28,0.118736591448921,1
168,254,28,0.117012575997296,1
168,255,28,0.153040377033076,1
168,256,28,0.134587959011606,1
169,255,28,0.124058192228418,1
170,245,28,0.153622790177038,1
171,244,28,0.251218034169682,1
171,245,28,0.163402052604152,1
172,245,28,0.127214486600706,1
175,245,28,0.115988141732042,1
175,246,28,0.126021348726294,1
175,247,28,0.218118068077636,1
175,248,28,0.15473678751019,1
176,246,28,0.170843100673646,1
176,248,28,0.223287923935388,1
177,246,28,0.142792359998263,1
177,248,28,0.166675279481524,1
178,246,28,0.114411113348192,1
178,247,28,0.147979633841211,1
178,259,28,0.130083896510929,1
179,246,28,0.14931962923787,1
179,247,28,0.175110683699847,1
179,258,28,0.129627908026255,1
179,259,28,0.142798236654526,1
180,246,28,0.201583936693597,1
180,247,28,0.254435238494261,1
180,248,28,0.136071526184826,1
180,258,28,0.123135050789856,1
181,246,28,0.182588887782387,1
181,247,28,0.233751269192877,1
181,248,28,0.138634902448448,1
182,246,28,0.147992423517969,1
182,247,28,0.177793877800786,1
183,246,28,0.142925803669841,1
183,247,28,0.176101624557461,1
183,248,28,0.114823916064296,1
184,246,28,0.157752583868011,1
184,247,28,0.219777828946953,1
184,248,28,0.146878390854218,1
184,258,28,0.16039806844319,1
184,259,28,0.14940565924589,1
185,246,28,0.17066041792424,1
185,248,28,0.166054579745354,1
185,257,28,0.13483615646801,1
185,258,28,0.184117842998168,1
185,259,28,0.157784181200183,1
186,247,28,0.167797190868802,1
186,248,28,0.113893802720908,1
186,257,28,0.134728704340265,1
186,258,28,0.150394586259374,1
187,257,28,0.147646266088024,1
189,250,28,0.144161585576976,1
161,256,29,0.114567592570173,1
162,255,29,0.130508817622413,1
162,256,29,0.137831767277063,1
162,257,29,0.113991091413072,1
163,248,29,0.147299802459556,1
163,249,29,0.186649998789338,1
163,250,29,0.15658176315516,1
163,251,29,0.1248180827469,1
163,254,29,0.127081690656771,1
163,255,29,0.14967883543563,1
163,256,29,0.135963826742889,1
163,257,29,0.116609689402582,1
164,248,29,0.219534895749767,1
164,249,29,0.236742475453949,1
164,250,29,0.188609739996,1
164,251,29,0.154135178074226,1
164,252,29,0.129482063314506,1
164,253,29,0.140908367595378,1
164,254,29,0.168805561488479,1
164,255,29,0.152463628561784,1
164,256,29,0.127644766186337,1
165,247,29,0.119163773718726,1
165,248,29,0.202602659178715,1
165,249,29,0.191793427359205,1
165,250,29,0.158534532456996,1
165,251,29,0.144954875288168,1
165,252,29,0.143596931947331,1
165,253,29,0.182779107726199,1
165,254,29,0.192361720040524,1
165,255,29,0.128755442443204,1
165,256,29,0.125851667637237,1
165,257,29,0.245921883198171,1
166,248,29,0.119888368969031,1
166,252,29,0.137402759592988,1
166,253,29,0.178216113786763,1
166,254,29,0.157359719386484,1
166,257,29,0.220378307803757,1
166,258,29,0.255557550294992,1
167,252,29,0.115229322908389,1
167,253,29,0.126727383635375,1
167,257,29,0.137019999662711,1
167,258,29,0.141759670149761,1
168,245,29,0.156081517207085,1
169,245,29,0.128547545423138,1
170,244,29,0.194187676046485,1
170,245,29,0.121448627095328,1
171,244,29,0.185631288081086,1
171,245,29,0.121044633475186,1
175,246,29,0.119466003437526,1
175,247,29,0.194231450658369,1
175,248,29,0.141523061129756,1
176,246,29,0.137850527825013,1
176,247,29,0.239463944370229,1
176,248,29,0.170871082507877,1
177,247,29,0.158711067682216,1
177,248,29,0.116699970859322,1
179,247,29,0.128360199034693,1
180,246,29,0.130165993045619,1
180,247,29,0.164961451019212,1
181,246,29,0.122805734278661,1
181,247,29,0.156502375299709,1
182,246,29,0.115493890208892,1
182,247,29,0.146947026430774,1
183,246,29,0.119294002305816,1
183,247,29,0.161380376857836,1
184,246,29,0.115610598953517,1
184,247,29,0.16459010287234,1
184,248,29,0.122341878847326,1
185,246,29,0.114378915395841,1
185,247,29,0.160923057587274,1
185,248,29,0.122523219033979,1
185,258,29,0.115077071581395,1
187,257,29,0.131976980654566,1
187,258,29,0.164456470770901,1
188,257,29,0.191190887550807,1
189,249,29,0.182002011206112,1
189,250,29,0.147914495993934,1
190,250,29,0.223726989063248,1
162,249,30,0.135668156738596,1
162,250,30,0.128106690211606,1
163,248,30,0.156523361675383,1
163,249,30,0.210008941939013,1
163,250,30,0.172213657038246,1
163,251,30,0.126091739055923,1
163,258,30,0.118402081339706,1
164,248,30,0.203257146744182,1
164,249,30,0.220033551820897,1
164,250,30,0.161817828555019,1
164,251,30,0.128259247737122,1
164,257,30,0.157325460482537,1
165,247,30,0.123775512107608,1
165,248,30,0.177474548072179,1
165,249,30,0.160818855874617,1
165,250,30,0.119275065104872,1
165,253,30,0.117653461282233,1
165,254,30,0.123245564902828,1
165,257,30,0.201187550929058,1
165,258,30,0.270849858239505,1
166,245,30,0.14403729253048,1
166,246,30,0.115981605571268,1
166,257,30,0.161276563781765,1
166,258,30,0.219043635550647,1
167,245,30,0.147519723660073,1
167,258,30,0.13168301829588,1
168,245,30,0.12322981923264,1
169,244,30,0.164046235411642,1
170,244,30,0.159640462636761,1
171,244,30,0.149499662192368,1
172,244,30,0.152043394643071,1
175,247,30,0.142629474161037,1
176,247,30,0.142863492270466,1
183,247,30,0.126629388331236,1
189,249,30,0.133611256385299,1
189,250,30,0.135078971896534,1
190,249,30,0.250551439985702,1
190,250,30,0.264119237850207,1
190,251,30,0.155890202014711,1
191,250,30,0.226996671103876,1
162,249,31,0.154344935839162,1
162,250,31,0.146187606986942,1
163,248,31,0.169768732495455,1
163,249,31,0.215987844955012,1
163,250,31,0.170317075165331,1
163,251,31,0.117373430956331,1
163,258,31,0.14489871141298,1
164,247,31,0.116301418151392,1
164,248,31,0.176723796401913,1
164,249,31,0.186205928493318,1
164,250,31,0.135665389175025,1
164,257,31,0.140446337578313,1
164,258,31,0.207648410419832,1
165,247,31,0.121880143251917,1
165,248,31,0.138614681569082,1
165,249,31,0.127883612810932,1
165,257,31,0.148308962129272,1
165,258,31,0.214026054573621,1
166,245,31,0.129481674677919,1
166,246,31,0.119669860992466,1
166,257,31,0.120017337431432,1
166,258,31,0.177555054729924,1
167,245,31,0.117487807881437,1
167,258,31,0.125056093213991,1
170,244,31,0.146297544033467,1
171,244,31,0.147878081923462,1
172,244,31,0.150996183918472,1
190,248,31,0.153041542942835,1
190,249,31,0.227282448540512,1
190,250,31,0.252939223173406,1
190,251,31,0.138836227977142,1
191,249,31,0.255119709961222,1
191,250,31,0.272428429392835,1
191,251,31,0.14613529414702,1
162,248,32,0.121141239109107,1
162,249,32,0.161132744691012,1
162,250,32,0.148696656566512,1
163,248,32,0.171864225639481,1
163,249,32,0.201621740434287,1
163,250,32,0.15547068648484,1
163,258,32,0.163425735882199,1
163,259,32,0.141437643518781,1
164,247,32,0.114506706171615,1
164,248,32,0.14587590866767,1
164,249,32,0.146387731275277,1
164,258,32,0.18585436548176,1
164,259,32,0.153643552792253,1
165,258,32,0.153033416905117,1
165,259,32,0.11867395029729,1
166,245,32,0.115109175318816,1
166,258,32,0.130606259413838,1
170,244,32,0.144955193263557,1
190,248,32,0.143331292951998,1
190,249,32,0.18914128885459,1
190,250,32,0.190405935860925,1
191,249,32,0.258062348425843,1
191,250,32,0.255411705583243,1
191,251,32,0.136689776332814,1
192,250,32,0.172950594444391,1
162,248,33,0.134091199015944,1
162,249,33,0.162662759824756,1
162,250,33,0.139124690539285,1
163,248,33,0.164300344854909,1
163,249,33,0.179110861200775,1
163,250,33,0.137795694735713,1
163,258,33,0.154990661416131,1
163,259,33,0.146951937384004,1
164,248,33,0.121106544461109,1
164,249,33,0.119522367519441,1
164,258,33,0.145729533996939,1
164,259,33,0.129848276747689,1
171,245,33,0.121588147629896,1
190,248,33,0.134489692839543,1
190,249,33,0.147284092119967,1
190,250,33,0.124202906361006,1
191,248,33,0.190960096302733,1
191,249,33,0.228309768137999,1
191,250,33,0.197016043577797,1
191,251,33,0.115431378602791,1
192,249,33,0.164860358399247,1
192,250,33,0.175465308696632,1
192,251,33,0.129048545090653,1
162,248,34,0.138100397596426,1
162,249,34,0.159782067676657,1
162,250,34,0.129518088748391,1
163,248,34,0.144856055603391,1
163,249,34,0.155830823055034,1
163,250,34,0.122296066837579,1
163,258,34,0.128404385836896,1
163,259,34,0.136876204125691,1
171,245,34,0.142207308836258,1
190,248,34,0.113979114340087,1
191,247,34,0.126373076613979,1
191,248,34,0.194953490328696,1
191,249,34,0.183068406445846,1
191,250,34,0.139504612244794,1
192,248,34,0.165404002099485,1
192,249,34,0.164837546609304,1
192,250,34,0.154497516918411,1
192,251,34,0.119520801196228,1
162,248,35,0.130718198527628,1
162,249,35,0.15542488625196,1
162,250,35,0.130231342876489,1
163,248,35,0.12821244647061,1
163,249,35,0.139501726912561,1
170,245,35,0.119880584460434,1
171,245,35,0.156965182589948,1
191,248,35,0.179582006512324,1
191,249,35,0.152258063361236,1
192,249,35,0.17454975155994,1
192,250,35,0.130930394103879,1
162,249,36,0.137172015452379,1
162,250,36,0.12274051399332,1
163,249,36,0.119909272906641,1
165,245,36,0.121456152512868,1
166,245,36,0.11471281310801,1
170,245,36,0.126978042456828,1
191,248,36,0.155717317618032,1
191,249,36,0.136996811013047,1
192,248,36,0.221040026365106,1
192,249,36,0.200291826035147,1
192,250,36,0.125181198864258,1
193,249,36,0.138231238580562,1
162,249,37,0.114190779957356,1
164,245,37,0.116265486932436,1
165,245,37,0.138552487938369,1
166,245,37,0.124938984055913,1
170,245,37,0.118409983616966,1
171,245,37,0.131874215719591,1
171,246,37,0.116278747683844,1
188,259,37,0.122395510696268,1
191,248,37,0.132589742782877,1
191,249,37,0.133548061720954,1
192,248,37,0.237692868561034,1
192,249,37,0.241004688229135,1
192,250,37,0.146531491481698,1
193,249,37,0.195926895432451,1
193,250,37,0.124123494951823,1
165,245,38,0.146183025785967,1
166,245,38,0.12708163177244,1
171,246,38,0.117504919668111,1
178,248,38,0.114877724566232,1
187,259,38,0.128269458280169,1
188,259,38,0.159093945381155,1
188,260,38,0.136640925891572,1
191,248,38,0.114534440691654,1
191,249,38,0.131533864284712,1
192,248,38,0.235396638731626,1
192,249,38,0.278735435902804,1
192,250,38,0.186441524702825,1
192,251,38,0.13243778587754,1
193,249,38,0.270589636602651,1
193,250,38,0.177472557781781,1
193,251,38,0.13905344049842,1
193,252,38,0.14935696190391,1
193,253,38,0.132058500122809,1
157,258,39,0.129618922277299,1
165,245,39,0.136542365297852,1
166,245,39,0.115652983895182,1
187,259,39,0.142811650505195,1
187,260,39,0.141852966484263,1
188,259,39,0.17555235151515,1
188,260,39,0.180312231104701,1
191,249,39,0.117308764183704,1
192,248,39,0.198162662830486,1
192,249,39,0.267957577655007,1
192,250,39,0.200491443918233,1
192,251,39,0.136234412022051,1
192,252,39,0.116066834752383,1
193,249,39,0.303771051501744,1
193,250,39,0.213190438805095,1
193,251,39,0.160050968863944,1
193,252,39,0.184718910698284,1
193,253,39,0.173912823302066,1
193,254,39,0.120780384150072,1
194,250,39,0.151796975493472,1
194,251,39,0.13432257910733,1
194,252,39,0.18952322440423,1
194,253,39,0.216248231467994,1
157,259,40,0.18411604113763,1
158,259,40,0.114781790213688,1
187,259,40,0.152244755502364,1
187,260,40,0.174094964315624,1
188,259,40,0.185131442546464,1
188,260,40,0.221105976816155,1
189,259,40,0.113927802533797,1
192,248,40,0.159208899372708,1
192,249,40,0.236104569716175,1
192,250,40,0.193318036911337,1
192,251,40,0.131500382653938,1
193,249,40,0.315689145940717,1
193,250,40,0.236504441433126,1
193,251,40,0.167780408834383,1
193,252,40,0.190492389836131,1
193,253,40,0.198338797642253,1
193,254,40,0.127473565881533,1
194,249,40,0.269621837287236,4
194,250,40,0.19586560862044,1
194,251,40,0.164365317826058,1
194,252,40,0.24464604816889,1
194,253,40,0.298046905656655,1
156,259,41,0.144072399368798,1
157,259,41,0.156865538524532,1
157,260,41,0.170311445823259,1
158,259,41,0.115403243669298,1
158,260,41,0.121155771762071,1
187,259,41,0.146368040354893,1
187,260,41,0.186137504900354,1
188,259,41,0.174610849942091,1
188,260,41,0.225173706421944,1
192,248,41,0.127139609285032,1
192,249,41,0.188434924193254,1
192,250,41,0.169312920663774,1
192,251,41,0.12353214316637,1
193,249,41,0.301424934866863,4
193,250,41,0.24625811272986,1
193,251,41,0.171763910292689,1
193,252,41,0.182833010443065,1
193,253,41,0.206844757066332,1
193,254,41,0.129532397640896,1
194,248,41,0.248066215006573,4
194,249,41,0.325071327768183,4
194,250,41,0.252566037835397,4
194,251,41,0.198350621615976,1
194,252,41,0.281032749203907,1
194,253,41,0.351064143502905,5
195,249,41,0.271778134391756,4
156,259,42,0.11930082111138,1
156,260,42,0.138863161670276,1
157,259,42,0.126840559320122,1
157,260,42,0.147982154090591,1
187,259,42,0.129112952772223,1
187,260,42,0.177325782697598,1
188,259,42,0.150571533674913,1
188,260,42,0.199364963106847,1
192,249,42,0.142329858906547,1
192,250,42,0.145054743114043,1
192,251,42,0.118552000847181,1
193,249,42,0.275756006507991,4
193,250,42,0.260295689789429,4
193,251,42,0.189493958891576,1
193,252,42,0.179296017092096,1
193,253,42,0.202660624914441,5
193,254,42,0.132135532605008,1
194,248,42,0.268426744453025,4
194,249,42,0.373974812015305,4
194,250,42,0.32878193568154,4
194,251,42,0.244240900415855,4
194,252,42,0.287606195536115,5
194,253,42,0.355801058203252,5
194,254,42,0.214334749791997,5
195,248,42,0.266101425763958,4
195,249,42,0.316497109627268,4
195,250,42,0.249854602809169,4
195,253,42,0.295226440402603,5
196,249,42,0.227036052944645,4
155,259,43,0.133387861009236,1
156,260,43,0.140256011642704,1
157,260,43,0.118741879261871,1
187,260,43,0.159860854911928,1
188,259,43,0.126136137841719,1
188,260,43,0.166826117584567,1
192,250,43,0.128270058900348,1
192,251,43,0.117366765250029,1
193,249,43,0.245540383392584,4
193,250,43,0.275316588074142,4
193,251,43,0.214223953034234,1
193,252,43,0.17614629421118,1
193,253,43,0.185107087987041,1
193,254,43,0.141849716069176,1
194,248,43,0.271051148437601,4
194,249,43,0.386896460335656,4
194,250,43,0.392561015237475,4
194,251,43,0.29184219300701,4
194,252,43,0.270961220286849,1
194,253,43,0.326381904552927,5
195,248,43,0.265350721201157,4
195,249,43,0.343368196940106,4
195,250,43,0.299205961280113,4
195,251,43,0.233285023057691,4
196,249,43,0.274876557243249,4
196,250,43,0.200156863147821,4
154,259,44,0.139826827305635,1
155,259,44,0.125194942467182,1
155,260,44,0.211474525837455,1
156,260,44,0.144577697592498,1
156,261,44,0.13657583515176,1
187,260,44,0.143960884222193,1
188,260,44,0.139314922259964,1
192,250,44,0.125988879906019,1
192,251,44,0.122598590978035,1
193,249,44,0.222856631539258,4
193,250,44,0.286641175561137,4
193,251,44,0.240463564778276,4
193,252,44,0.171472715497574,1
193,253,44,0.158543094238766,1
193,254,44,0.147798694068011,1
194,248,44,0.257980522759077,4
194,249,44,0.360270449609663,4
194,250,44,0.418971108897479,4
194,251,44,0.332581482488883,4
194,252,44,0.245238872062626,4
194,253,44,0.276590585912286,1
195,248,44,0.261810171236578,4
195,249,44,0.343474330058831,4
195,250,44,0.32762455237309,4
195,251,44,0.257402891022815,4
196,249,44,0.296444827878273,4
196,250,44,0.21638385385983,4
154,259,45,0.135094588021193,1
154,260,45,0.237865328990528,1
155,259,45,0.119621611171403,1
155,260,45,0.222538067306958,1
155,261,45,0.242823837206399,1
156,260,45,0.154603720698332,1
156,261,45,0.174991466482709,1
187,260,45,0.13165279885706,1
188,260,45,0.123738556301288,1
190,259,45,0.124438714554106,1
191,258,45,0.128053329230587,1
191,259,45,0.131388231556556,1
192,250,45,0.130151778368045,1
192,251,45,0.129086301723879,1
192,257,45,0.118093539220592,1
192,258,45,0.127875616318742,1
193,249,45,0.211395408849929,4
193,250,45,0.282325802011658,4
193,251,45,0.25668254722123,4
193,252,45,0.165471412881951,1
193,253,45,0.133257973951268,1
193,254,45,0.140199376692866,1
194,248,45,0.242742694597876,4
194,249,45,0.314026134656312,4
194,250,45,0.393064334947643,4
194,251,45,0.347023547796977,4
194,252,45,0.225468481384402,4
195,248,45,0.262184157401492,4
195,249,45,0.325270097716899,4
195,250,45,0.323022270807815,4
195,251,45,0.261915385759734,4
196,249,45,0.285335780597547,4
196,250,45,0.216009938356113,4
154,259,46,0.123187658051434,1
154,260,46,0.226536384063017,1
155,260,46,0.21010603042445,1
155,261,46,0.265260816604138,1
156,260,46,0.150550594406705,1
156,261,46,0.19028422194814,1
187,260,46,0.121225231719265,1
188,260,46,0.116999927642934,1
190,259,46,0.140383084029637,1
191,258,46,0.141053682348145,1
191,259,46,0.140607021141548,1
192,249,46,0.123105808830935,1
192,250,46,0.13844659035697,1
192,251,46,0.131433195631932,1
192,257,46,0.119483798282443,1
192,258,46,0.130219754440091,1
193,249,46,0.215470840526251,1
193,250,46,0.269538268644263,4
193,251,46,0.257184500814912,4
193,252,46,0.165503281082047,1
193,253,46,0.120841376540426,1
193,254,46,0.125834202544576,1
194,249,46,0.28036422361386,4
194,250,46,0.346432914400366,4
194,251,46,0.335570521806564,4
194,252,46,0.223382280187853,4
195,249,46,0.296692518929428,4
195,250,46,0.292526004969461,4
195,251,46,0.246789320059329,4
153,259,47,0.137211562169276,1
153,260,47,0.238890622967018,1
154,259,47,0.114863321458798,1
154,260,47,0.206750730566122,1
154,261,47,0.242669819349467,1
155,260,47,0.181182729951086,1
155,261,47,0.241043410565394,1
155,262,47,0.152204396181695,1
156,260,47,0.130550389960306,1
156,261,47,0.170020851648323,1
188,260,47,0.116069355001762,1
190,259,47,0.136111485092042,1
191,258,47,0.136209256635722,1
192,248,47,0.14442419791768,1
192,249,47,0.146853659435074,1
192,250,47,0.141426420165236,1
192,251,47,0.127987484771334,1
193,249,47,0.221275493029084,1
193,250,47,0.242484286598426,1
193,251,47,0.233925661028437,1
193,252,47,0.169272078491589,1
193,253,47,0.11905028005859,1
194,250,47,0.287225567218631,4
194,251,47,0.286974060462808,4
194,252,47,0.22221933819853,1
153,259,48,0.139809291551775,1
153,260,48,0.227186278650642,1
154,260,48,0.197439268820539,1
154,261,48,0.244061680065129,1
155,260,48,0.154608820081422,1
155,261,48,0.205939068943565,1
155,262,48,0.143770287418661,1
156,261,48,0.136758647446695,1
188,260,48,0.117809622528825,1
192,248,48,0.184580768057069,1
192,249,48,0.169287741723713,1
192,250,48,0.141036123040553,1
192,251,48,0.123485895412571,1
193,249,48,0.220044198107995,1
193,250,48,0.211229849664063,1
193,251,48,0.20094553632744,1
193,252,48,0.167080768763681,1
193,253,48,0.114042002805909,1
194,251,48,0.22375311015261,1
194,252,48,0.200746742824991,1
152,260,49,0.255211593071773,1
153,259,49,0.150294365127512,1
153,260,49,0.22096474863598,1
153,261,49,0.236194332990799,1
154,259,49,0.115542976187459,1
154,260,49,0.196591263788708,1
154,261,49,0.247518048989691,1
154,262,49,0.167621432916756,1
155,260,49,0.137557436954431,1
155,261,49,0.174041685772669,1
155,262,49,0.125454751913717,1
188,260,49,0.11575806887281,1
192,249,49,0.180916808310963,1
192,250,49,0.143216232968649,1
192,251,49,0.124907174740148,1
193,250,49,0.180751013587771,1
193,251,49,0.170776243403895,1
193,252,49,0.161758590917737,1
194,251,49,0.169319068187961,1
152,258,50,0.165609049117917,1
152,259,50,0.213942415269451,1
152,260,50,0.228351387583358,1
153,259,50,0.155408504630994,1
153,260,50,0.21393435989293,1
153,261,50,0.249905408210209,1
154,260,50,0.179033840495442,1
154,261,50,0.225413224327915,1
154,262,50,0.147968328049603,1
155,261,50,0.136207442998319,1
191,248,50,0.11698520656011,1
191,249,50,0.116352317767362,1
192,249,50,0.188243620777746,1
192,250,50,0.150834157792484,1
192,251,50,0.129358194235196,1
193,251,50,0.151017617815063,1
193,252,50,0.149079828687108,1
151,259,51,0.168137412758152,1
152,258,51,0.153440684494079,1
152,259,51,0.18636574056845,1
152,260,51,0.195494437126561,1
152,261,51,0.205456146765757,1
153,259,51,0.149251264529238,1
153,260,51,0.198424085707699,1
153,261,51,0.231218041706877,1
153,262,51,0.148630140825882,1
154,260,51,0.156452947792021,1
154,261,51,0.183151186038779,1
154,262,51,0.120855473449338,1
184,261,51,0.113991173851136,1
191,249,51,0.117637998256835,1
192,250,51,0.155877600767814,1
192,251,51,0.129756358306539,1
192,252,51,0.114406543924084,1
193,252,51,0.135162328555914,1
151,258,52,0.140309513946118,1
151,259,52,0.136725330692049,1
151,260,52,0.144096329961036,1
152,258,52,0.127430686311485,1
152,259,52,0.149133201444993,1
152,260,52,0.168629768205834,1
152,261,52,0.183745034519879,1
153,259,52,0.142226717111853,1
153,260,52,0.175943284590611,1
153,261,52,0.18594993475145,1
153,262,52,0.121679500781466,1
154,260,52,0.13315588029767,1
154,261,52,0.136284840563371,1
184,261,52,0.114739888123539,1
184,262,52,0.158627663915371,1
192,250,52,0.146824535244816,1
192,251,52,0.119014796360553,1
192,253,52,0.120022660574981,1
193,251,52,0.124910071849248,1
193,252,52,0.119108634430903,1
193,253,52,0.12850195717385,1
151,258,53,0.125947272237526,1
151,259,53,0.116778334127408,1
152,259,53,0.12317139419913,1
152,260,53,0.140346328430043,1
152,261,53,0.144786736968591,1
153,259,53,0.13924121085405,1
153,260,53,0.149651371783514,1
153,261,53,0.135630529650899,1
154,259,53,0.117545349649977,1
154,260,53,0.118993762877414,1
184,262,53,0.165780567398111,1
192,253,53,0.120177573473749,1
192,254,53,0.117904544070871,1
193,253,53,0.131969478790759,1
193,254,53,0.136199670266588,1
151,258,54,0.115382810806339,1
151,259,54,0.116947838563471,1
151,260,54,0.122315710650499,1
152,259,54,0.118851121473288,1
152,260,54,0.120957743755929,1
153,258,54,0.11871534598219,1
153,259,54,0.140162314894749,1
153,260,54,0.125764436388859,1
154,259,54,0.114879608864834,1
184,262,54,0.151489293085595,1
185,262,54,0.123287184348187,1
192,254,54,0.120196899311279,1
193,253,54,0.123064578022163,1
193,254,54,0.153325954262985,1
193,255,54,0.121360642127509,1
151,259,55,0.13468553034856,1
151,260,55,0.145232974208003,1
152,259,55,0.129577609030463,1
152,260,55,0.125415428957279,1
153,251,55,0.1176736821616,1
153,258,55,0.115427586451855,1
153,259,55,0.135272512916631,1
184,262,55,0.119611047322369,1
184,263,55,0.11935096700791,1
193,254,55,0.146286250018725,1
193,255,55,0.14858352798923,1
150,260,56,0.144830770671533,1
151,259,56,0.151043326714106,1
151,260,56,0.173603256595587,1
151,261,56,0.114577956212481,1
152,259,56,0.133603224562511,1
152,260,56,0.129896691444879,1
153,251,56,0.135376596860627,1
154,251,56,0.138647244604287,1
192,255,56,0.118542602907906,1
193,254,56,0.129110762275098,1
193,255,56,0.163416867901906,1
193,256,56,0.120444943668422,1
150,259,57,0.1222608069,1
150,260,57,0.165900291020497,1
151,259,57,0.154296815563628,1
151,260,57,0.181473795200673,1
151,261,57,0.124599704315863,1
152,259,57,0.124319532667567,1
152,260,57,0.121521490566871,1
153,251,57,0.135647818090567,1
153,252,57,0.124903771225799,1
154,251,57,0.154316848013134,1
154,252,57,0.125074453348488,1
187,262,57,0.122881200437647,1
191,249,57,0.125223195169337,1
191,250,57,0.122725098075387,1
192,255,57,0.114723918692892,1
193,255,57,0.155456636683393,1
193,256,57,0.159861655738834,1
149,260,58,0.145197172534577,1
150,259,58,0.124897529486682,1
150,260,58,0.168239188436361,1
150,261,58,0.147653143777919,1
151,259,58,0.141203990492206,1
151,260,58,0.160999630771689,1
151,261,58,0.124832368085672,1
152,258,58,0.116812840345546,1
153,251,58,0.127704215807211,1
153,252,58,0.147602350153745,1
154,251,58,0.149083609061177,1
154,252,58,0.148402529331699,1
187,262,58,0.165892918702219,1
191,249,58,0.126529390959833,1
191,250,58,0.134285858838336,1
192,256,58,0.137278301670365,1
192,257,58,0.121674613381968,1
193,255,58,0.138453950898382,1
193,256,58,0.191987286354692,1
193,257,58,0.162105019215606,1
194,256,58,0.134407784734713,1
150,259,59,0.11461598371363,1
150,260,59,0.145742182351301,1
151,258,59,0.119050633364578,1
151,259,59,0.128253029551738,1
151,260,59,0.13071746836192,1
152,258,59,0.122682206728472,1
153,252,59,0.149077991495972,1
154,251,59,0.12045096164708,1
154,252,59,0.153108035129733,1
186,262,59,0.119863354905098,1
186,263,59,0.130050026243569,1
187,262,59,0.21586470604141,1
187,263,59,0.201063469866155,1
188,261,59,0.120309674582574,1
188,262,59,0.238201205216228,1
189,261,59,0.126217551318166,1
191,249,59,0.114667083536327,1
191,250,59,0.126896369889323,1
192,256,59,0.154692871575911,1
192,257,59,0.170953720778415,1
192,258,59,0.116352235329299,1
193,255,59,0.118408629277346,1
193,256,59,0.192329898947892,1
193,257,59,0.19568495149203,1
194,256,59,0.142359783923711,1
150,260,60,0.11843864850944,1
151,258,60,0.11681581989271,1
151,259,60,0.117693161098392,1
152,258,60,0.115115546603462,1
153,252,60,0.126416780564666,1
154,252,60,0.143365481194747,1
154,253,60,0.127285524657979,1
154,264,60,0.119120564396423,1
155,252,60,0.132295556663732,1
155,253,60,0.118287539538473,1
156,252,60,0.122809290892271,1
186,262,60,0.127719384410953,1
186,263,60,0.139557125291442,1
187,262,60,0.229941335189493,1
187,263,60,0.222517905311923,1
188,261,60,0.114227429565154,1
188,262,60,0.220819798966067,1
189,261,60,0.12700837966431,1
190,260,60,0.12091200240738,1
190,261,60,0.164242320234851,1
191,257,60,0.119249462197625,1
191,260,60,0.139322153255847,1
192,256,60,0.152701474152746,1
192,257,60,0.205729087418171,1
192,258,60,0.150716789543349,1
193,256,60,0.170630810882465,1
193,257,60,0.194973475670737,1
194,256,60,0.153951918258373,1
153,264,61,0.12100294336863,1
154,252,61,0.123121566277989,1
154,253,61,0.138211488775846,1
154,264,61,0.149939021741885,1
154,265,61,0.135638714572949,1
155,252,61,0.146828256734554,1
155,253,61,0.146545988804063,1
155,264,61,0.121016051020776,1
155,265,61,0.133287910745298,1
156,252,61,0.143841890765514,1
156,253,61,0.121495275262579,1
162,249,61,0.135239785005298,1
186,262,61,0.131041873919885,1
186,263,61,0.141995066152542,1
187,262,61,0.216159009929217,1
187,263,61,0.211097925208231,1
188,262,61,0.188807626679746,1
191,257,61,0.130482178350935,1
191,258,61,0.140737120183109,1
192,256,61,0.127801692929235,1
192,257,61,0.193083206198136,1
192,258,61,0.159560309285004,1
193,256,61,0.139199991822144,1
193,257,61,0.161547938110966,1
151,257,62,0.113884911186883,1
152,264,62,0.1210144022595,1
153,263,62,0.117203455445618,1
153,264,62,0.160247666084199,1
153,265,62,0.161764820879988,1
154,253,62,0.14224026050805,1
154,254,62,0.115789513105721,1
154,264,62,0.162739450777834,1
154,265,62,0.170680002852828,1
154,266,62,0.126683632577224,1
155,252,62,0.159192152668888,1
155,253,62,0.166385109273773,1
155,264,62,0.117999088753196,1
155,265,62,0.144689448276427,1
155,266,62,0.126088182442313,1
156,251,62,0.124729132076048,1
156,252,62,0.155951265066263,1
156,253,62,0.134727561984238,1
156,266,62,0.124374683732257,1
161,249,62,0.12144204382709,1
161,250,62,0.124156328854952,1
162,249,62,0.157818946509379,1
162,250,62,0.122806747089159,1
163,249,62,0.124412193051291,1
186,262,62,0.119731088920145,1
186,263,62,0.128167046651182,1
187,262,62,0.175061468175751,1
191,257,62,0.116852021979589,1
191,258,62,0.145341980882095,1
192,257,62,0.148920817438882,1
192,258,62,0.143495309368384,1
193,257,62,0.123011723446393,1
150,257,63,0.12622886888664,1
151,254,63,0.121997888360772,1
151,256,63,0.125817538278819,1
151,257,63,0.14183053155404,1
151,263,63,0.144824128518963,1
152,254,63,0.115444945552721,1
152,256,63,0.116474891391384,1
152,263,63,0.163421107573759,1
152,264,63,0.178411998403245,1
153,254,63,0.116077221948423,1
153,263,63,0.13079090889991,1
153,264,63,0.181225315099478,1
153,265,63,0.202115803527577,1
154,253,63,0.142185686509807,1
154,254,63,0.121806502507201,1
154,264,63,0.155835781115729,1
154,265,63,0.186756002362534,1
154,266,63,0.166384708860321,1
155,252,63,0.158456016089649,1
155,253,63,0.16502079464829,1
155,254,63,0.117252188118197,1
155,265,63,0.143819644265151,1
155,266,63,0.14867890882906,1
156,251,63,0.137240839458796,1
156,252,63,0.155165759863667,1
156,253,63,0.13658486800818,1
156,266,63,0.137077930067838,1
157,266,63,0.115840624705284,1
161,249,63,0.119783778619787,1
161,250,63,0.135947244915197,1
162,248,63,0.114041425739462,1
162,249,63,0.159760586672601,1
162,250,63,0.130512692211412,1
163,248,63,0.128743889337404,1
163,249,63,0.148140941578358,1
191,258,63,0.116215941656086,1
194,255,63,0.114252408298489,1
150,256,64,0.132456993946408,1
150,257,64,0.150084112734194,1
151,255,64,0.134996993130507,1
151,256,64,0.147597686514706,1
151,257,64,0.169338770885212,1
151,258,64,0.116218768103988,1
151,263,64,0.182965052667559,1
152,254,64,0.148951025100836,1
152,255,64,0.132621363668782,1
152,256,64,0.124842684620515,1
152,257,64,0.126592844715235,1
152,262,64,0.127403022452643,1
152,263,64,0.207352528431946,1
152,264,64,0.237067823161214,1
153,253,64,0.129296330356738,1
153,254,64,0.143244626993199,1
153,263,64,0.143508935202645,1
153,264,64,0.193728672684049,1
153,265,64,0.222803117458978,1
154,253,64,0.139822740733043,1
154,254,64,0.126917191388868,1
154,264,64,0.145117019182819,1
154,265,64,0.194953419667499,1
154,266,64,0.210013016734739,1
155,251,64,0.115543435485243,1
155,252,64,0.153681851161326,1
155,253,64,0.157107011390302,1
155,254,64,0.12168398776751,1
155,265,64,0.146005819279371,1
155,266,64,0.168272222546217,1
156,251,64,0.146179186527566,1
156,252,64,0.163693000085076,1
156,253,64,0.149873577696085,1
156,265,64,0.116508702774413,1
156,266,64,0.140243881470458,1
157,251,64,0.12100873758683,1
157,252,64,0.128580885731516,1
157,253,64,0.117415910112927,1
157,266,64,0.124759999242512,1
161,249,64,0.115911450778964,1
161,250,64,0.13451441248182,1
162,248,64,0.136771401792854,1
162,249,64,0.157137419258983,1
162,250,64,0.130951521801947,1
163,248,64,0.15140818580767,1
163,249,64,0.159379557941664,1
164,248,64,0.12107811510596,1
150,257,65,0.166944745958391,1
151,255,65,0.181915769214499,1
151,256,65,0.173601772710438,1
151,257,65,0.179938621799507,1
151,258,65,0.121882416187105,1
151,262,65,0.125219709216924,1
151,263,65,0.199910443998222,1
152,254,65,0.190220179349425,1
152,255,65,0.180979225702134,1
152,256,65,0.145561713652751,1
152,257,65,0.139833469458205,1
152,262,65,0.136156025200233,1
152,263,65,0.222088049693476,1
152,264,65,0.273481116360244,1
153,253,65,0.147921726989817,1
153,254,65,0.178393862029207,1
153,255,65,0.143156017851468,1
153,263,65,0.151617013200171,1
153,264,65,0.202380311943749,1
153,265,65,0.22534235114677,1
154,252,65,0.115386508742345,1
154,253,65,0.141724245336055,1
154,254,65,0.142801121986759,1
154,264,65,0.132225967161009,1
154,265,65,0.200628032013103,1
154,266,65,0.262309628134613,1
155,252,65,0.140121248962105,1
155,253,65,0.149037985481291,1
155,254,65,0.136046971418676,1
155,265,65,0.148041827471924,1
155,266,65,0.185375953843729,1
156,251,65,0.136497648536668,1
156,252,65,0.164602327259517,1
156,253,65,0.164594224775531,1
156,254,65,0.133888024519247,1
156,265,65,0.118531638645419,1
156,266,65,0.130836980000714,1
157,251,65,0.13684406505767,1
157,252,65,0.159323547165737,1
157,253,65,0.142926427843753,1
157,266,65,0.128597703096534,1
158,252,65,0.117011245211408,1
158,266,65,0.119501157383308,1
162,248,65,0.150812193936911,1
162,249,65,0.141745031505002,1
162,250,65,0.116152947198467,1
163,247,65,0.123767774706476,1
163,248,65,0.155809742464431,1
163,249,65,0.142287850824602,1
164,248,65,0.122489160336758,1
166,248,65,0.120384269253457,1
151,256,66,0.196025573794833,1
151,257,66,0.165501691205102,1
151,262,66,0.136488250597393,1
151,263,66,0.191671407247898,1
152,255,66,0.217471659442423,1
152,256,66,0.161916860223389,1
152,257,66,0.139461532468019,1
152,262,66,0.131027364820654,1
152,263,66,0.207941913480734,1
152,264,66,0.269921794070847,1
153,254,66,0.190906417346325,1
153,255,66,0.165868787903255,1
153,263,66,0.153391563184913,1
153,264,66,0.20712653036844,1
153,265,66,0.216687697009307,1
154,253,66,0.135690144147901,1
154,254,66,0.1553592184457,1
154,255,66,0.126382639429382,1
154,264,66,0.123778974506288,1
154,265,66,0.193725422268961,1
154,266,66,0.281135867444869,1
155,252,66,0.122277906909808,1
155,253,66,0.1451387357242,1
155,254,66,0.161647181762929,1
155,255,66,0.127818710500979,1
155,265,66,0.137451374496904,1
155,266,66,0.186909619806013,1
156,251,66,0.118070150364202,1
156,252,66,0.151958047693293,1
156,253,66,0.168113929686832,1
156,254,66,0.156827617015179,1
156,255,66,0.115883162746211,1
156,266,66,0.119923334484954,1
157,251,66,0.142680055801619,1
157,252,66,0.171254148636677,1
157,253,66,0.15046180861198,1
157,254,66,0.119898402859084,1
157,266,66,0.125298060708144,1
158,251,66,0.125068235163103,1
158,252,66,0.124085443896941,1
158,266,66,0.126364561939674,1
162,248,66,0.145079592301849,1
162,249,66,0.122421125380381,1
163,247,66,0.124262049783357,1
163,248,66,0.148829758708969,1
163,249,66,0.119113828028923,1
164,248,66,0.123745010023997,1
166,248,66,0.117846036599297,1
167,248,66,0.115998069630298,1
151,262,67,0.143171728191057,1
151,263,67,0.18374115993088,1
152,255,67,0.234820632202908,1
152,256,67,0.17760628409815,1
152,257,67,0.132195653507259,1
152,262,67,0.123078898691534,1
152,263,67,0.182105423868731,1
152,264,67,0.233083261784945,1
153,254,67,0.185995534777604,1
153,255,67,0.182867222239547,1
153,256,67,0.132890759484452,1
153,263,67,0.14503825550128,1
153,264,67,0.197506385181348,1
153,265,67,0.214192720784916,1
154,253,67,0.131425446453934,1
154,254,67,0.170016812183196,1
154,255,67,0.151366790122771,1
154,264,67,0.126647348052281,1
154,265,67,0.193528842817369,1
154,266,67,0.271119312939507,1
155,252,67,0.118217620283495,1
155,253,67,0.151575111110022,1
155,254,67,0.188394835740509,1
155,255,67,0.149240123613757,1
155,265,67,0.135832349807976,1
155,266,67,0.192927398257533,1
156,252,67,0.146485173066703,1
156,253,67,0.168402262703447,1
156,254,67,0.172397234829488,1
156,255,67,0.131852970252861,1
156,266,67,0.122469881606692,1
157,251,67,0.145589507057122,1
157,252,67,0.169555783199763,1
157,253,67,0.145902512608549,1
157,254,67,0.12637266442366,1
157,255,67,0.118024326577589,1
157,266,67,0.1224831423581,1
158,251,67,0.133459193488166,1
158,252,67,0.12759857731687,1
158,266,67,0.129085500896973,1
158,267,67,0.13088685502932,1
162,248,67,0.122883002298185,1
163,248,67,0.134780039700287,1
164,248,67,0.125613539401485,1
152,256,68,0.190515496047731,1
152,257,68,0.124446534393302,1
152,263,68,0.150136437350981,1
152,264,68,0.182887666879373,1
153,254,68,0.16763401060992,1
153,255,68,0.185402687330136,1
153,256,68,0.147141309393445,1
153,263,68,0.123480101194372,1
153,264,68,0.167958475052216,1
153,265,68,0.200513631534265,1
154,253,68,0.128225377469762,1
154,254,68,0.171840554138301,1
154,255,68,0.165720788024981,1
154,264,68,0.122538340530255,1
154,265,68,0.181204835129054,1
154,266,68,0.232833262468003,1
155,253,68,0.154615521118324,1
155,254,68,0.190986853342873,1
155,255,68,0.15581324019371,1
155,265,68,0.129862020350613,1
155,266,68,0.188245010447965,1
156,252,68,0.129893676567117,1
156,253,68,0.155949969610974,1
156,254,68,0.168495676806611,1
156,255,68,0.140448563406036,1
156,266,68,0.127434925983338,1
157,251,68,0.128064693906527,1
157,252,68,0.145080640442946,1
157,253,68,0.129087926931423,1
157,254,68,0.126646040820126,1
157,255,68,0.132378654232055,1
157,266,68,0.114519919815557,1
157,267,68,0.118368587932066,1
158,251,68,0.123281802320306,1
158,252,68,0.120464811241801,1
158,265,68,0.11941921394788,1
158,266,68,0.119754112693681,1
152,256,69,0.190732049064498,1
152,257,69,0.119265254975278,1
153,255,69,0.171295791635768,1
153,256,69,0.146299228125342,1
153,264,69,0.124776086441821,1
154,254,69,0.156887796801761,1
154,255,69,0.159662273393073,1
154,256,69,0.118773311717916,1
154,265,69,0.144285407548821,1
155,253,69,0.143527330667742,1
155,254,69,0.165243754280302,1
155,255,69,0.146916194594908,1
155,266,69,0.163864836340658,1
156,253,69,0.130324603880393,1
156,254,69,0.14756147265096,1
156,255,69,0.139225147208473,1
156,266,69,0.129719767583073,1
156,267,69,0.177637492793736,1
157,254,69,0.118918449817689,1
157,255,69,0.130139648195798,1
158,265,69,0.11762620961371,1
153,256,70,0.132756738746427,1
154,255,70,0.137304834950046,1
154,256,70,0.114887004736844,1
155,254,70,0.133033966178159,1
155,255,70,0.129989893564451,1
156,254,70,0.121720036755129,1
156,255,70,0.126967254847335,1
156,266,70,0.124337645487873,1
157,255,70,0.114975496109913,1
