x,y,z,signal,mito.p
602,745,29,0.171230170936974,1
601,745,30,0.153525395493078,1
602,744,30,0.157345057187991,1
602,745,30,0.208821951588789,1
602,746,30,0.171917315752576,1
603,745,30,0.171702953232933,1
598,747,31,0.148815897337382,1
599,746,31,0.138193635046597,1
599,747,31,0.141217486780939,1
600,745,31,0.132215768394829,1
600,746,31,0.145116854306692,1
601,744,31,0.160804099461194,1
601,745,31,0.19953002766433,1
601,746,31,0.170853358324158,1
602,743,31,0.122391011933357,1
602,744,31,0.19864264079173,1
602,745,31,0.229601195738206,1
602,746,31,0.160394900466166,1
603,744,31,0.167773495813889,1
603,745,31,0.159416254656926,1
597,747,32,0.135623251547551,1
598,746,32,0.172869086753013,1
598,747,32,0.193067849164535,1
598,748,32,0.140486402477325,1
599,745,32,0.133207392310686,1
599,746,32,0.200047832919997,1
599,747,32,0.193327599726739,1
599,748,32,0.122347331536403,1
600,744,32,0.13085934426974,1
600,745,32,0.174696338214263,1
600,746,32,0.187937551800546,1
600,747,32,0.14286643648703,1
601,743,32,0.131857398354574,1
601,744,32,0.206976257554977,1
601,745,32,0.244637168411731,1
601,746,32,0.182385206880441,1
602,743,32,0.142590598725517,1
602,744,32,0.222194324134596,1
602,745,32,0.223789641991745,1
602,746,32,0.138833719504629,1
603,744,32,0.160383641782023,1
603,745,32,0.130979550743643,1
597,747,33,0.135075733258313,1
598,745,33,0.115400864742314,1
598,746,33,0.19363901540122,1
598,747,33,0.216579255624796,1
598,748,33,0.14478658386933,1
599,745,33,0.17397517003204,1
599,746,33,0.262656244862342,1
599,747,33,0.237384267557588,1
599,748,33,0.128805647224065,1
600,744,33,0.163852329308691,1
600,745,33,0.23973544824496,1
600,746,33,0.242050049985731,1
600,747,33,0.163518667133847,1
601,743,33,0.14562162257141,1
601,744,33,0.235329840346206,1
601,745,33,0.27176965504805,1
601,746,33,0.187648947916008,1
602,743,33,0.158522143193692,1
602,744,33,0.216471520852261,1
602,745,33,0.196130764764257,1
602,746,33,0.117769451638016,1
603,744,33,0.137631313236472,1
597,747,34,0.128531776199217,1
598,745,34,0.120018844870313,1
598,746,34,0.185478636340639,1
598,747,34,0.203715149072986,1
598,748,34,0.136767868732976,1
599,744,34,0.125281219789394,1
599,745,34,0.226299951696005,1
599,746,34,0.286109662033145,1
599,747,34,0.237409140299127,1
599,748,34,0.122779189222113,1
600,743,34,0.114567616123905,1
600,744,34,0.210626591466822,1
600,745,34,0.329921700798066,2
600,746,34,0.281866527781298,1
600,747,34,0.164384726101653,1
601,743,34,0.149576730005166,1
601,744,34,0.235461246619922,1
601,745,34,0.27962343517245,1
601,746,34,0.181528180769056,1
602,742,34,0.124585018563639,1
602,743,34,0.159182377869893,1
602,744,34,0.183741666336129,1
602,745,34,0.157292320380885,1
603,743,34,0.127312293474985,1
607,747,34,0.152904377781519,1
607,748,34,0.15302484334648,1
608,747,34,0.139436435966022,1
608,748,34,0.159860171853685,1
609,747,34,0.145587622758521,1
611,744,34,0.159609666131494,1
612,740,34,0.123993737439383,1
612,742,34,0.117993082551404,1
613,739,34,0.11926068555117,1
613,744,34,0.116984700154861,1
614,739,34,0.122550447148769,1
614,742,34,0.127619728568671,1
615,740,34,0.130804923370758,1
615,741,34,0.123569299179416,1
617,748,34,0.116478400897529,1
622,734,34,0.1417681730472,1
622,735,34,0.124775485821642,1
623,734,34,0.148380494814928,1
623,735,34,0.128170273512537,1
624,734,34,0.128909719391194,1
624,735,34,0.124128076152797,1
625,734,34,0.120460430247553,1
625,735,34,0.132536640892916,1
626,734,34,0.124922885079737,1
626,735,34,0.148504776084558,1
630,740,34,0.124039184366276,1
635,751,34,0.158860304131447,1
636,744,34,0.24799873356291,1
636,745,34,0.223261049126585,1
636,746,34,0.219670565249068,1
636,747,34,0.209143036070469,1
637,744,34,0.251715512554187,1
637,745,34,0.236714352297323,1
637,746,34,0.25199434163973,1
637,747,34,0.253382268882062,3
637,748,34,0.186344765969643,1
597,746,35,0.117911704405556,1
597,747,35,0.128529609255825,1
598,745,35,0.130110300245081,1
598,746,35,0.169518391649392,1
598,747,35,0.175280729871757,1
598,748,35,0.131364689600905,1
599,744,35,0.151647868589769,1
599,745,35,0.263467341195318,2
599,746,35,0.263984628268869,1
599,747,35,0.20088163505112,1
599,748,35,0.114511299149456,1
600,743,35,0.124621326642315,1
600,744,35,0.244359493459081,2
600,745,35,0.383675298984014,2
600,746,35,0.280348819472794,2
600,747,35,0.151126789365282,1
601,742,35,0.116141476530731,1
601,743,35,0.152316582609676,1
601,744,35,0.215985442474295,1
601,745,35,0.262134953654263,2
601,746,35,0.165707468389242,1
602,742,35,0.149185113871462,1
602,743,35,0.159052455481326,1
602,744,35,0.14825869846408,1
602,745,35,0.125000223760459,1
603,742,35,0.12862938286677,1
603,743,35,0.120239366691009,1
606,740,35,0.115334101687493,1
607,739,35,0.145607572769963,1
607,747,35,0.126750525177574,1
607,748,35,0.124123153422701,1
608,748,35,0.126097497943524,1
609,747,35,0.118721846812365,1
609,748,35,0.160071225073909,1
609,749,35,0.144182147985463,1
610,747,35,0.140849530371549,1
610,749,35,0.153084481397215,1
611,744,35,0.125534281091563,1
611,745,35,0.126427697719688,1
611,749,35,0.137226601227489,1
612,741,35,0.115723562654671,1
612,744,35,0.129354720059649,1
613,740,35,0.153914668030396,1
613,742,35,0.127509508877355,1
614,740,35,0.151542171215097,1
614,741,35,0.175197608749703,1
615,740,35,0.118721222638453,1
615,749,35,0.137624070463723,1
616,747,35,0.122834611154727,1
616,748,35,0.158069911529354,1
617,748,35,0.120965693140654,1
622,734,35,0.120757855004918,1
622,735,35,0.120755264094342,1
622,740,35,0.127523617563133,1
622,741,35,0.116852175078851,1
623,734,35,0.140641268268628,1
623,735,35,0.127399289186039,1
624,734,35,0.139879293244818,1
624,735,35,0.12227147674083,1
625,734,35,0.134624384858945,1
625,735,35,0.124148932982942,1
626,733,35,0.120929090640321,1
626,734,35,0.135396523318337,1
626,735,35,0.141446311292347,1
626,738,35,0.130557738724852,1
626,739,35,0.121475042606347,1
626,740,35,0.124449419725535,1
626,742,35,0.125226115832169,1
627,734,35,0.1456536674245,1
627,743,35,0.116562640821878,1
629,740,35,0.119855994363686,1
629,742,35,0.120609266283331,1
634,751,35,0.200943534260176,1
635,744,35,0.1469838055841,1
635,745,35,0.143194057129484,1
635,746,35,0.147885053828287,1
635,747,35,0.171695192278069,1
635,748,35,0.176343391844888,1
635,750,35,0.154037100332023,1
635,751,35,0.177989373780682,1
635,752,35,0.170273960057957,1
636,743,35,0.26939042186525,1
636,744,35,0.303344988034233,1
636,745,35,0.277340560309379,1
636,746,35,0.275221383887306,1
636,747,35,0.286394167568225,3
636,748,35,0.232596547456202,1
636,749,35,0.1656740456428,1
636,750,35,0.140663208570468,1
636,751,35,0.144962883557224,1
636,752,35,0.129448593460598,1
636,755,35,0.186276813451329,1
637,743,35,0.2592897805348,1
637,744,35,0.299774713259216,1
637,745,35,0.283519198977127,1
637,746,35,0.30779956414289,3
637,747,35,0.326865580450176,3
637,748,35,0.245356452295354,3
637,749,35,0.164681008502992,1
638,744,35,0.152944901978316,1
638,745,35,0.161819559754359,1
638,746,35,0.20149059325163,1
638,747,35,0.242851018213724,3
638,748,35,0.208748440389601,1
597,746,36,0.133915876807949,1
598,745,36,0.1487797659117,1
598,746,36,0.156499230876418,1
598,747,36,0.143579784830058,1
599,744,36,0.174220458602478,1
599,745,36,0.268517120124695,1
599,746,36,0.219998079899725,1
599,747,36,0.152672997690133,1
600,743,36,0.125264213994516,1
600,744,36,0.23864448646221,1
600,745,36,0.35107643855128,2
600,746,36,0.234993186847332,1
600,747,36,0.127633118865607,1
601,742,36,0.120956577846169,1
601,743,36,0.144246143476714,1
601,744,36,0.181552146691892,1
601,745,36,0.213893823919268,1
601,746,36,0.140323033788583,1
602,741,36,0.12416061563427,1
602,742,36,0.160762044271784,1
602,743,36,0.147701099177325,1
602,744,36,0.116551017054881,1
603,742,36,0.130336451407849,1
606,739,36,0.128712421550761,1
607,739,36,0.128084278835115,1
609,748,36,0.115483585450916,1
610,748,36,0.138590527216385,1
610,749,36,0.120354662211682,1
611,747,36,0.129401344673168,1
611,748,36,0.147747182054995,1
611,749,36,0.115563597480278,1
612,745,36,0.124818542044684,1
612,749,36,0.120269680344759,1
613,740,36,0.116931421611906,1
613,741,36,0.135318796001028,1
613,749,36,0.134136987471958,1
614,740,36,0.121037873553954,1
614,741,36,0.135772923740834,1
614,749,36,0.155593872505907,1
615,747,36,0.126608013318976,1
615,748,36,0.190289427323027,1
615,749,36,0.162659320979809,1
616,748,36,0.154760035044185,1
616,749,36,0.129755204173646,1
617,748,36,0.11708395558369,1
623,734,36,0.121629649306592,1
623,735,36,0.114850602443238,1
624,734,36,0.140541082467365,1
625,733,36,0.119813244339167,1
625,734,36,0.142505923057116,1
626,733,36,0.132752817049963,1
626,734,36,0.139078101256366,1
626,735,36,0.12287659568294,1
627,733,36,0.142319224396315,1
627,734,36,0.140542130608462,1
627,735,36,0.162420945429865,1
627,738,36,0.149350861487188,1
627,739,36,0.128024664338113,1
627,740,36,0.131251490362425,1
627,742,36,0.121921138523364,1
628,733,36,0.139068538440963,1
628,734,36,0.138388000447332,1
628,739,36,0.134293325371544,1
628,740,36,0.132823230933324,1
628,742,36,0.126105765303637,1
629,734,36,0.123534074572436,1
629,739,36,0.116173886466675,1
631,740,36,0.116214610870198,1
633,739,36,0.119938008460312,1
634,748,36,0.153329428438532,1
634,750,36,0.145045910464349,1
634,751,36,0.165041451271708,1
634,752,36,0.1618510982022,1
635,744,36,0.145722361885388,1
635,745,36,0.145072208206705,1
635,746,36,0.168200501430701,1
635,747,36,0.240316024197786,3
635,748,36,0.252521639049601,1
635,749,36,0.182093081712891,1
635,750,36,0.164334003138676,1
635,751,36,0.188310960899014,1
635,752,36,0.170819758924721,1
635,753,36,0.141527571669533,1
635,755,36,0.187222083621592,1
636,743,36,0.238615468263748,1
636,744,36,0.307493554050022,1
636,745,36,0.286816297562405,1
636,746,36,0.293980942580805,3
636,747,36,0.349213597400196,3
636,748,36,0.303179405294634,3
636,749,36,0.194483157620919,1
636,750,36,0.164182022679606,1
636,751,36,0.178161445573589,1
636,752,36,0.151964418977939,1
636,753,36,0.126360463590216,1
636,754,36,0.167097645013029,1
636,755,36,0.245882312927541,1
636,756,36,0.203666015986955,1
637,743,36,0.231381834362804,1
637,744,36,0.298405016605853,1
637,745,36,0.289188158426927,3
637,746,36,0.315127860494822,3
637,747,36,0.359044666261982,3
637,748,36,0.29888362845061,3
637,749,36,0.198098573124306,3
637,750,36,0.145951421934121,1
637,751,36,0.133087916002491,1
637,752,36,0.122844609714181,1
637,755,36,0.196947867299025,1
638,744,36,0.147561920171878,1
638,745,36,0.16283600930429,1
638,746,36,0.211941949659267,3
638,747,36,0.271390345739587,3
638,748,36,0.264856257694416,3
638,749,36,0.201215980284207,1
639,747,36,0.143541038940067,1
639,748,36,0.162350025141254,1
595,745,37,0.13589151678406,1
595,746,37,0.14864031603833,1
595,747,37,0.148607069944881,1
596,745,37,0.144414305350023,1
596,746,37,0.166109401057789,1
596,747,37,0.153158228133728,1
597,745,37,0.140786465252733,1
598,744,37,0.149410063793871,1
598,745,37,0.186650587632651,1
598,746,37,0.153414292536793,1
599,744,37,0.203852938408214,1
599,745,37,0.257636402726995,1
599,746,37,0.180251297598678,1
599,747,37,0.11397324946069,1
600,743,37,0.123547829952226,1
600,744,37,0.207661812493635,1
600,745,37,0.259273151599642,1
600,746,37,0.17570357825478,1
601,742,37,0.117810399801998,1
601,743,37,0.130453301474869,1
601,744,37,0.146066081504017,1
601,745,37,0.155202397694598,1
601,746,37,0.116578115624142,1
602,741,37,0.125888117038308,1
602,742,37,0.1525497645616,1
602,743,37,0.127927670067606,1
603,741,37,0.113896487846415,1
603,742,37,0.120475563520695,1
612,746,37,0.115122860037409,1
612,747,37,0.11769417390889,1
612,748,37,0.115492747852865,1
613,748,37,0.12528249169095,1
614,748,37,0.140737332166701,1
614,749,37,0.15346740620362,1
614,750,37,0.122689555493018,1
615,748,37,0.154222538868134,1
615,749,37,0.180768784878956,1
615,750,37,0.129548802815594,1
616,748,37,0.133261907424598,1
616,749,37,0.13423037802139,1
624,734,37,0.127060515851238,1
625,733,37,0.124238908241159,1
625,734,37,0.138251447683062,1
626,733,37,0.145115700173798,1
626,734,37,0.138136046170592,1
627,732,37,0.114817815647574,1
627,733,37,0.14342931180987,1
627,734,37,0.133178409442823,1
627,735,37,0.140742137128135,1
627,736,37,0.146456390405566,1
627,737,37,0.120347855182985,1
628,732,37,0.122909794668924,1
628,733,37,0.125791016776005,1
628,734,37,0.12248351921782,1
628,735,37,0.17705556250129,1
629,735,37,0.167644550905222,1
629,738,37,0.115987246690206,1
630,734,37,0.13195751349464,1
634,747,37,0.144059868783098,1
634,748,37,0.173259972721009,1
634,749,37,0.139228315185496,1
634,750,37,0.128724092425223,1
634,751,37,0.137504452833132,1
634,752,37,0.13580825433961,1
635,745,37,0.131171466556197,1
635,746,37,0.173952664440619,1
635,747,37,0.286534477152832,3
635,748,37,0.304006235520932,3
635,749,37,0.198971286021548,1
635,750,37,0.174595245594298,1
635,751,37,0.196783108940064,1
635,752,37,0.171900156858437,1
635,753,37,0.13301133104121,1
635,755,37,0.180575573611114,1
636,744,37,0.256595657501972,1
636,745,37,0.252399889806218,1
636,746,37,0.270224388872501,3
636,747,37,0.360226380576122,3
636,748,37,0.344793574617141,3
636,749,37,0.219337209272746,3
636,750,37,0.190865092322623,1
636,751,37,0.209449399469325,1
636,752,37,0.175534544893367,1
636,753,37,0.133087751126363,1
636,754,37,0.177625456836419,1
636,755,37,0.274828507628913,1
636,756,37,0.222404258552525,1
637,744,37,0.257605146923944,1
637,745,37,0.262264664059237,1
637,746,37,0.279662157508709,3
637,747,37,0.341743884438228,3
637,748,37,0.332199676484773,3
637,749,37,0.22431491378062,3
637,750,37,0.161369966108063,1
637,751,37,0.147239186928922,1
637,752,37,0.135460401040924,1
637,753,37,0.144354043125377,1
637,754,37,0.186760442241113,1
637,755,37,0.248961233288509,1
637,756,37,0.200108059814044,1
638,745,37,0.154190753106101,1
638,746,37,0.202064409283223,1
638,747,37,0.277374948758855,3
638,748,37,0.310099703891896,3
638,749,37,0.239905718177329,1
638,750,37,0.158829943370232,1
638,751,37,0.123178978501001,1
638,752,37,0.138934364603677,1
638,753,37,0.200657992360865,1
638,754,37,0.213939612375282,1
638,755,37,0.190901541723694,1
639,747,37,0.143699426014382,1
639,748,37,0.177745887070782,1
639,749,37,0.179026244416705,1
639,753,37,0.224270255903767,1
639,754,37,0.216413107595617,1
594,745,38,0.122958527341502,1
594,746,38,0.123781753846725,1
594,747,38,0.132604051675382,1
595,744,38,0.13418303501903,1
595,745,38,0.19709016717403,1
595,746,38,0.192434029999353,1
595,747,38,0.166943532941167,1
595,748,38,0.149921521318625,1
596,744,38,0.124741639108015,1
596,745,38,0.195223015689895,1
596,746,38,0.199237278322869,1
596,747,38,0.169841007123685,1
596,748,38,0.145088589827671,1
597,744,38,0.119195641918823,1
597,745,38,0.161651174120591,1
597,746,38,0.153260627985848,1
597,747,38,0.139291097659522,1
598,744,38,0.18031783689304,1
598,745,38,0.211933493869293,1
598,746,38,0.147074958528943,1
599,743,38,0.116560309002359,1
599,744,38,0.208206068590919,1
599,745,38,0.229321000536177,1
599,746,38,0.146072806094651,1
600,743,38,0.116353295247262,1
600,744,38,0.164289545468549,1
600,745,38,0.173287624802985,1
600,746,38,0.126091291535005,1
602,742,38,0.125961180716578,1
614,749,38,0.128104900127934,1
614,750,38,0.11938389512597,1
615,749,38,0.16174322210727,1
615,750,38,0.130690346238926,1
625,733,38,0.114990876697247,1
626,733,38,0.13977172334841,1
626,734,38,0.121055668398871,1
627,733,38,0.130384347922924,1
627,734,38,0.115807296173772,1
628,735,38,0.13341863396077,1
628,736,38,0.141865167317708,1
629,735,38,0.136710268080104,1
629,736,38,0.153081336973924,1
629,737,38,0.117856459125936,1
630,733,38,0.127630951922215,1
630,734,38,0.118675669719764,1
630,735,38,0.138061074639988,1
630,738,38,0.129383125861066,1
631,733,38,0.15963605808878,1
631,734,38,0.135025493146853,1
631,739,38,0.116137295743209,1
632,734,38,0.127888594425359,1
632,735,38,0.1484814107819,1
632,739,38,0.115260873133096,1
633,735,38,0.138313770859303,1
633,736,38,0.146868380517898,1
633,738,38,0.131212402943312,1
634,738,38,0.115772259996652,1
634,747,38,0.144131625229213,1
634,748,38,0.1661735496483,1
634,749,38,0.130163531680571,1
634,750,38,0.116619334656048,1
634,751,38,0.12071267894595,1
634,752,38,0.119417082335087,1
635,746,38,0.16219528889548,1
635,747,38,0.280137094971193,3
635,748,38,0.301400509646243,3
635,749,38,0.200994716520937,1
635,750,38,0.177486301384705,1
635,751,38,0.19140656907947,1
635,752,38,0.161128540349758,1
635,753,38,0.119515313176552,1
635,754,38,0.125586758807612,1
635,755,38,0.157023313201801,1
635,756,38,0.133643218800325,1
636,745,38,0.196000642168963,1
636,746,38,0.224636021816032,3
636,747,38,0.321128503605935,3
636,748,38,0.340988304252796,3
636,749,38,0.231414974464456,3
636,750,38,0.201196501347415,1
636,751,38,0.212093941895203,1
636,752,38,0.174765397758005,1
636,753,38,0.130333095000965,1
636,754,38,0.173117849498998,1
636,755,38,0.266790348886365,1
636,756,38,0.213116809837245,1
636,757,38,0.119176740048477,1
637,745,38,0.216598169272008,1
637,746,38,0.229694115212988,3
637,747,38,0.29973396530196,3
637,748,38,0.334204334659346,3
637,749,38,0.230920228312924,3
637,750,38,0.163375825522994,1
637,751,38,0.147413025251768,1
637,752,38,0.135829358483946,1
637,753,38,0.149818073325407,1
637,754,38,0.217599014474145,1
637,755,38,0.294120003817589,1
637,756,38,0.211343072456275,1
638,746,38,0.176445697482078,1
638,747,38,0.260021218144401,3
638,748,38,0.318569155030573,3
638,749,38,0.241317199152179,1
638,750,38,0.160111172204259,1
638,751,38,0.126859366975538,1
638,752,38,0.142564371644359,1
638,753,38,0.206581897411435,1
638,754,38,0.237932386467005,1
638,755,38,0.222112380699167,1
638,756,38,0.142325489689165,1
639,747,38,0.138889553627562,1
639,748,38,0.180084584279919,1
639,749,38,0.184452164677523,1
639,752,38,0.186317902937706,1
639,753,38,0.242126505401483,1
639,754,38,0.226581913427973,1
639,755,38,0.172831966070566,1
640,753,38,0.199963133697863,1
640,754,38,0.18070291686597,1
594,745,39,0.136002078004498,1
594,746,39,0.135097814882548,1
594,747,39,0.138995851622414,1
595,744,39,0.152390164470061,1
595,745,39,0.251374713598389,1
595,746,39,0.225904484527035,1
595,747,39,0.177446801775273,1
595,748,39,0.144586447804128,1
596,744,39,0.143603786083494,1
596,745,39,0.241126555241181,1
596,746,39,0.218987836758313,1
596,747,39,0.174227842697622,1
596,748,39,0.145652725275199,1
597,744,39,0.135423374573407,1
597,745,39,0.176887600834707,1
597,746,39,0.149642115166635,1
597,747,39,0.134430137226872,1
597,748,39,0.138791994067474,1
598,744,39,0.193170696537573,1
598,745,39,0.208724038722713,1
598,746,39,0.133728483312039,1
599,743,39,0.116026616754109,1
599,744,39,0.187318771693576,1
599,745,39,0.18849654075752,1
599,746,39,0.118829039849053,1
600,744,39,0.122510723778878,1
600,745,39,0.116331260730492,1
615,749,39,0.122802848946427,1
626,733,39,0.116959226793143,1
630,732,39,0.132839212140837,1
630,733,39,0.120564773282606,1
630,736,39,0.120631571668025,1
630,737,39,0.120500059402513,1
630,751,39,0.113803438826105,1
631,732,39,0.170090841564499,1
631,733,39,0.149560124623741,1
631,734,39,0.1139161787668,1
631,735,39,0.116918113753034,1
631,738,39,0.139744919200805,1
631,751,39,0.138191691863665,1
632,733,39,0.129766674841382,1
632,734,39,0.117099359724757,1
632,735,39,0.131956229816218,1
632,736,39,0.156777706655974,1
632,738,39,0.137519515445077,1
633,734,39,0.123728063113451,1
633,735,39,0.136674136654422,1
633,736,39,0.129356345267193,1
633,737,39,0.120907044346685,1
634,735,39,0.120091425697066,1
634,747,39,0.124360787030071,1
634,748,39,0.143441182891059,1
634,749,39,0.132097222459068,1
634,750,39,0.125104095720862,1
634,751,39,0.125359512396282,1
634,752,39,0.119180979720331,1
635,737,39,0.121521926310923,1
635,738,39,0.128306131441699,1
635,746,39,0.134132312056053,1
635,747,39,0.21809088707031,1
635,748,39,0.251801083264423,1
635,749,39,0.217006331902805,1
635,750,39,0.204760463722117,1
635,751,39,0.202790264658218,1
635,752,39,0.160426427137141,1
635,753,39,0.115511143317962,1
635,755,39,0.133393360805779,1
636,744,39,0.120111199055514,1
636,746,39,0.169578759865834,1
636,747,39,0.240768491399449,3
636,748,39,0.288630358933446,3
636,749,39,0.247653954026317,1
636,750,39,0.223296403279094,1
636,751,39,0.22019263373032,1
636,752,39,0.180931882699774,1
636,753,39,0.143030535341481,1
636,754,39,0.172738846389057,1
636,755,39,0.234135666107564,1
636,756,39,0.185238093847303,1
637,746,39,0.173516873281579,1
637,747,39,0.233977879653429,3
637,748,39,0.290879339975423,3
637,749,39,0.226745164348053,1
637,750,39,0.170141623411807,1
637,751,39,0.154650133328258,1
637,752,39,0.150276664497525,1
637,753,39,0.174085531045751,1
637,754,39,0.250207060862562,1
637,755,39,0.303978395009096,1
637,756,39,0.202687664599371,1
638,747,39,0.213705417612859,1
638,748,39,0.279336103189467,1
638,749,39,0.214403055616298,1
638,750,39,0.153744186114434,1
638,751,39,0.131659181918572,1
638,752,39,0.148735849977421,1
638,753,39,0.203861323536991,1
638,754,39,0.252991795104385,1
638,755,39,0.237371925401749,1
638,756,39,0.144807582021869,1
639,748,39,0.172493122074568,1
639,749,39,0.170159088504469,1
639,752,39,0.197086504568623,1
639,753,39,0.240357219675959,1
639,754,39,0.226655306858498,1
639,755,39,0.173933091288897,1
640,753,39,0.235635049612169,1
640,754,39,0.204469363141932,1
594,745,40,0.135992503412229,1
594,746,40,0.138662837175214,1
594,747,40,0.135053816510206,1
595,744,40,0.151108028817332,1
595,745,40,0.248966956845511,1
595,746,40,0.224720980129223,1
595,747,40,0.168611914476586,1
595,748,40,0.135130436802085,1
596,744,40,0.149097599978293,1
596,745,40,0.241758148578641,1
596,746,40,0.210429682262975,1
596,747,40,0.158637497598697,1
596,748,40,0.136582807056585,1
597,744,40,0.141478038170048,1
597,745,40,0.169912492701876,1
597,746,40,0.137132468735482,1
597,747,40,0.118482446675056,1
597,748,40,0.121714854933975,1
598,743,40,0.11571387029374,1
598,744,40,0.174638042726282,1
598,745,40,0.170614511699563,1
599,744,40,0.147143770758493,1
599,745,40,0.13931395655693,1
625,752,40,0.114888665274987,1
630,731,40,0.117114245683708,1
630,732,40,0.128341732908399,1
630,752,40,0.120441799245131,1
631,731,40,0.147393169455256,1
631,732,40,0.165357554138961,1
631,733,40,0.125391604356838,1
631,751,40,0.120039383725068,1
631,752,40,0.147376870272354,1
632,732,40,0.133445332116579,1
632,733,40,0.114589014689898,1
632,736,40,0.114256129788227,1
633,734,40,0.118463603689042,1
633,735,40,0.122492552074241,1
634,734,40,0.125786258922036,1
634,748,40,0.115364085588988,1
634,749,40,0.13885430546685,1
634,750,40,0.141349352352438,1
634,751,40,0.132450033818449,1
634,752,40,0.119639759322308,1
635,735,40,0.116485490571017,1
635,747,40,0.141622222343655,1
635,748,40,0.192788443012545,1
635,749,40,0.24204873097671,1
635,750,40,0.245994522909255,1
635,751,40,0.214640123934088,1
635,752,40,0.1618443618347,1
635,753,40,0.12473331286357,1
635,754,40,0.115389382297712,1
635,755,40,0.122300801137815,1
636,737,40,0.155106322019659,1
636,738,40,0.118580771731451,1
636,746,40,0.12078813332807,1
636,747,40,0.16258663416126,1
636,748,40,0.22220699604269,1
636,749,40,0.259282596646382,1
636,750,40,0.250680490886166,1
636,751,40,0.224596875512588,1
636,752,40,0.190484781980528,1
636,753,40,0.176289960202671,1
636,754,40,0.189853683271451,1
636,755,40,0.201330875391428,1
636,756,40,0.157704969997727,1
637,747,40,0.168662225249243,1
637,748,40,0.22493070256356,1
637,749,40,0.213974872312861,1
637,750,40,0.180778453686154,1
637,751,40,0.165206350953064,1
637,752,40,0.173278003103251,1
637,753,40,0.216393251799105,1
637,754,40,0.278211059155764,1
637,755,40,0.274575446326744,1
637,756,40,0.178931958825438,1
638,748,40,0.22241469285603,1
638,749,40,0.184740768562061,1
638,750,40,0.145347610224167,1
638,751,40,0.134849205235825,1
638,752,40,0.153832795256165,1
638,753,40,0.203085063174408,1
638,754,40,0.255658195394039,1
638,755,40,0.226090959427377,1
638,756,40,0.142905700559137,1
639,752,40,0.188690658844064,1
639,753,40,0.227760777740479,1
639,754,40,0.218659968801668,1
639,755,40,0.16843672181412,1
640,752,40,0.226400431918925,1
640,753,40,0.265770613590749,1
640,754,40,0.225139765493386,1
641,753,40,0.184619879029914,1
594,745,41,0.125317916504656,1
594,746,41,0.133697439492581,1
595,744,41,0.135169936411517,1
595,745,41,0.199872522488868,1
595,746,41,0.191684915313497,1
595,747,41,0.146248316732506,1
595,748,41,0.121518982094358,1
596,744,41,0.143670560915181,1
596,745,41,0.200077204424446,1
596,746,41,0.176486480769932,1
596,747,41,0.13329892211525,1
596,748,41,0.120946873708372,1
596,749,41,0.114360708360605,1
597,744,41,0.137903912359765,1
597,745,41,0.147160741222772,1
597,746,41,0.120967200579535,1
598,743,41,0.116073147152698,1
598,744,41,0.139505236418706,1
598,745,41,0.124917561936188,1
625,752,41,0.118130813002301,1
625,753,41,0.130762879958214,1
626,753,41,0.128377499251227,1
629,753,41,0.116852410616176,1
630,731,41,0.114105562553108,1
630,753,41,0.121840737857415,1
631,731,41,0.140581677325359,1
631,732,41,0.138126966206706,1
631,752,41,0.114867584684383,1
631,753,41,0.122655767663721,1
632,731,41,0.120673885948493,1
632,732,41,0.120682070870543,1
634,733,41,0.119697913487894,1
634,734,41,0.116331614036479,1
634,749,41,0.137346336626742,1
634,750,41,0.15300819085759,1
634,751,41,0.137703682079633,1
635,748,41,0.145409238565299,1
635,749,41,0.243754162533379,1
635,750,41,0.265611837879847,1
635,751,41,0.210898990383388,1
635,752,41,0.164036696149973,1
635,753,41,0.150686652542592,1
635,754,41,0.140826954118931,1
636,736,41,0.139230635228149,1
636,737,41,0.131959315355178,1
636,748,41,0.162657401350609,1
636,749,41,0.243097908437974,1
636,750,41,0.255430760552849,1
636,751,41,0.214016232667162,1
636,752,41,0.190799118317841,1
636,753,41,0.208177097499922,1
636,754,41,0.209046936841797,1
636,755,41,0.16881342843514,1
637,737,41,0.169559516466367,1
637,747,41,0.117455433276091,1
637,748,41,0.159162192321125,1
637,749,41,0.18931694081484,1
637,750,41,0.184460090508515,1
637,751,41,0.171095714454897,1
637,752,41,0.184092923149164,1
637,753,41,0.238495202905513,1
637,754,41,0.269450059915985,1
637,755,41,0.217210943177186,1
637,756,41,0.146493946832065,1
638,750,41,0.138338514055313,1
638,751,41,0.138293149566484,1
638,752,41,0.156522172211891,1
638,753,41,0.198348713763642,1
638,754,41,0.233922952349197,1
638,755,41,0.199551131808666,1
639,753,41,0.208230540919004,1
639,754,41,0.202887659342178,1
640,752,41,0.212717950930792,1
640,753,41,0.272265649547406,1
640,754,41,0.23044613878481,1
641,753,41,0.200349815324605,1
594,746,42,0.121890424456161,1
595,744,42,0.114582702289583,1
595,745,42,0.145714424277529,1
595,746,42,0.147921891865945,1
595,747,42,0.120527311071036,1
596,744,42,0.128582911352513,1
596,745,42,0.149270083961519,1
596,746,42,0.135584540988158,1
597,743,42,0.117014036328712,1
597,744,42,0.126758392124235,1
597,745,42,0.121751634087301,1
598,752,42,0.113815357014758,1
625,753,42,0.134055844863435,1
626,753,42,0.130417205379786,1
626,754,42,0.129392029171957,1
629,754,42,0.123118268755437,1
630,754,42,0.142458167864437,1
631,731,42,0.119035558975767,1
633,732,42,0.12220719860479,1
634,732,42,0.132852154916856,1
634,733,42,0.116220758394385,1
634,749,42,0.119230984294465,1
634,750,42,0.142344956849091,1
634,751,42,0.127064614200696,1
635,749,42,0.207162072950809,1
635,750,42,0.236747987027358,1
635,751,42,0.180099953090386,1
635,752,42,0.165131579629187,1
635,753,42,0.20120394432689,1
635,754,42,0.188783696087508,1
636,736,42,0.118548726878361,1
636,748,42,0.1224176983123,1
636,749,42,0.201445063886673,1
636,750,42,0.223051703551969,1
636,751,42,0.182658241747785,1
636,752,42,0.184027431995899,1
636,753,42,0.243078994790762,1
636,754,42,0.236121858155843,1
636,755,42,0.149219796742594,1
637,736,42,0.203214914901778,1
637,737,42,0.166926762683614,1
637,748,42,0.115990296898567,1
637,750,42,0.172142265674985,1
637,751,42,0.163865413407105,1
637,752,42,0.178262985714473,1
637,753,42,0.232455083738701,1
637,754,42,0.239404565410552,1
637,755,42,0.169281182009207,1
638,753,42,0.186201276631145,1
638,754,42,0.202183591169762,1
640,753,42,0.252198434731995,1
597,743,43,0.123244952505783,1
597,744,43,0.116636917517373,1
614,730,43,0.115014866173816,1
625,753,43,0.114673784573229,1
626,754,43,0.117469494854404,1
630,754,43,0.114315202549381,1
630,755,43,0.116502861448749,1
633,731,43,0.11584246189642,1
633,732,43,0.121372018580315,1
634,731,43,0.132641466779486,1
634,732,43,0.139196576530929,1
634,750,43,0.118654059170179,1
634,752,43,0.123027422009116,1
634,753,43,0.157605302378578,1
634,754,43,0.158726648476276,1
635,749,43,0.154996349642534,1
635,750,43,0.184291657767281,1
635,751,43,0.150725009795997,1
635,752,43,0.175064883466966,1
635,753,43,0.264730457209039,1
635,754,43,0.242360723717638,1
635,755,43,0.141541963000101,1
636,749,43,0.156652742328102,1
636,750,43,0.18009254544151,1
636,752,43,0.182481942059891,1
636,753,43,0.268042653736861,1
636,754,43,0.249638732850645,1
636,755,43,0.138015403952637,1
637,735,43,0.149599683117504,1
637,736,43,0.19742576075494,1
637,737,43,0.153153505610358,1
637,749,43,0.13492750961958,1
637,752,43,0.165412410781994,1
637,753,43,0.204167734043312,1
637,754,43,0.19884734628104,1
638,736,43,0.201546368490231,1
638,737,43,0.156891588952696,1
638,753,43,0.164982519832949,1
593,741,44,0.133375377531002,1
593,742,44,0.115861740626486,1
597,743,44,0.117989478830329,1
623,727,44,0.115698949004191,1
629,728,44,0.114631540953958,1
632,755,44,0.11785355023997,1
634,731,44,0.138223748493621,1
634,732,44,0.129910859014989,1
634,753,44,0.149919260160303,1
634,754,44,0.15330377842382,1
635,750,44,0.123882528491301,1
635,751,44,0.117147421115959,1
635,752,44,0.159399743490431,1
635,753,44,0.263175322019565,1
635,754,44,0.235428648254117,1
635,755,44,0.13396331402524,1
636,750,44,0.135107554350944,1
636,751,44,0.13465128322148,1
636,752,44,0.163817681768158,1
636,753,44,0.24298598110105,1
636,754,44,0.213824363962073,1
636,755,44,0.117810364471399,1
637,735,44,0.131806946259521,1
637,736,44,0.166256070150176,1
637,737,44,0.129178773677743,1
637,750,44,0.132542152466325,1
637,753,44,0.166315767085242,1
637,754,44,0.156113738713169,1
638,736,44,0.175102333901669,1
638,737,44,0.134573814995229,1
590,743,45,0.126251798445246,1
590,744,45,0.119977508069744,1
592,742,45,0.113988724262954,1
592,750,45,0.124769279413124,1
593,751,45,0.127519483883076,1
610,730,45,0.118226217395864,1
611,730,45,0.119489109649126,1
623,726,45,0.134144936856683,1
623,727,45,0.127005093918624,1
628,728,45,0.117818596500914,1
629,727,45,0.120796742217305,1
629,728,45,0.127237581035439,1
630,727,45,0.135916778162185,1
630,728,45,0.115281200004259,1
631,728,45,0.117420020239251,1
633,729,45,0.117573178384947,1
633,755,45,0.122149550844453,1
634,730,45,0.137172309874036,1
634,731,45,0.13134298483639,1
634,753,45,0.131570714099236,1
634,754,45,0.139341926614295,1
635,731,45,0.123125841280441,1
635,752,45,0.13817728875623,1
635,753,45,0.219230181112187,1
635,754,45,0.196650077458805,1
636,751,45,0.117688521013086,1
636,752,45,0.147642426829623,1
636,753,45,0.199730964556438,1
636,754,45,0.167016455297041,1
637,736,45,0.119358468871717,1
637,751,45,0.126211121149189,1
638,736,45,0.132053718715108,1
589,743,46,0.14350551991143,1
589,744,46,0.13840318082794,1
590,742,46,0.132747670559408,1
590,743,46,0.166152421950232,1
590,744,46,0.136946441356058,1
591,742,46,0.131527810975455,1
591,743,46,0.141372329018509,1
591,749,46,0.120854884606025,1
591,750,46,0.143235959219633,1
592,750,46,0.117605223238037,1
592,751,46,0.13739038210655,1
598,733,46,0.114497885298787,1
610,729,46,0.117434470454151,1
611,729,46,0.126901551710477,1
622,726,46,0.133765109366104,1
622,727,46,0.117322331133635,1
623,726,46,0.144696349520055,1
623,727,46,0.125652579713132,1
628,728,46,0.114949433904882,1
629,727,46,0.129610796239581,1
629,728,46,0.127196915516247,1
630,727,46,0.148013998736955,1
630,728,46,0.122039201607608,1
631,727,46,0.159571721068409,1
631,728,46,0.133199749124484,1
632,728,46,0.156234852005775,1
633,729,46,0.129525979248785,1
634,730,46,0.147245593544167,1
634,731,46,0.116204023467432,1
635,731,46,0.117226314343027,1
635,753,46,0.153888629379098,1
635,754,46,0.143397749808296,1
636,752,46,0.122660631509486,1
636,753,46,0.14715492345084,1
589,742,47,0.123464897260032,1
589,743,47,0.150504064008116,1
589,744,47,0.135589781693643,1
590,742,47,0.173569492320023,1
590,743,47,0.200010005625573,1
590,744,47,0.143671373518953,1
590,749,47,0.129906183599084,1
590,750,47,0.141762319944669,1
591,742,47,0.161481434147203,1
591,743,47,0.167107007621705,1
591,749,47,0.115038467013798,1
591,750,47,0.138367190724653,1
591,751,47,0.143187320761984,1
592,751,47,0.124682236594605,1
611,727,47,0.117358297683189,1
611,728,47,0.11991015617161,1
613,727,47,0.116508196369164,1
621,725,47,0.117842597754349,1
621,726,47,0.128991238859438,1
622,725,47,0.128151112551134,1
622,726,47,0.141497481776242,1
622,727,47,0.115701999212552,1
623,725,47,0.115841743507579,1
623,726,47,0.130578124480346,1
629,726,47,0.123402091232274,1
629,727,47,0.13230526080153,1
629,728,47,0.118095564841588,1
630,727,47,0.151165947445593,1
630,728,47,0.126700167297451,1
631,727,47,0.167086633643077,1
631,728,47,0.151684965718484,1
632,728,47,0.176188620268514,1
632,729,47,0.118010700743328,1
633,728,47,0.15426212091563,1
633,729,47,0.137412204639727,1
634,729,47,0.156740868618316,1
634,730,47,0.145806707801533,1
635,730,47,0.134231649922946,1
638,734,47,0.122794251834058,1
638,735,47,0.115403985611873,1
639,741,47,0.12014521064527,1
588,745,48,0.114103136518658,1
589,742,48,0.134367413637178,1
589,743,48,0.148154744065614,1
589,744,48,0.125974841881438,1
589,748,48,0.124610833454478,1
589,749,48,0.128676655207933,1
590,741,48,0.124735974435344,1
590,742,48,0.202590929419921,1
590,743,48,0.20679880373419,1
590,744,48,0.138036154790985,1
590,749,48,0.120609501820656,1
590,750,48,0.139607377179768,1
590,751,48,0.149568957273435,1
591,741,48,0.120622691910866,1
591,742,48,0.181133585088188,1
591,743,48,0.177244852072667,1
591,744,48,0.117031760512431,1
591,750,48,0.128014889539118,1
591,751,48,0.137552243356411,1
591,752,48,0.120211479071708,1
593,754,48,0.11828638540558,1
597,734,48,0.116525437701367,1
603,733,48,0.115495644961965,1
605,728,48,0.114668449652813,1
612,727,48,0.120591836521268,1
613,726,48,0.115751697588164,1
620,726,48,0.117751927661023,1
621,725,48,0.132918364458963,1
621,726,48,0.148059740085504,1
621,727,48,0.121893180242865,1
622,725,48,0.131000654887979,1
622,726,48,0.135749687983705,1
629,726,48,0.12378123566461,1
629,727,48,0.134703784491262,1
630,726,48,0.129721286798821,1
630,727,48,0.154607289088809,1
630,728,48,0.138136211046719,1
631,727,48,0.169101372815168,1
631,728,48,0.172838926198525,1
632,727,48,0.172157434278727,1
632,728,48,0.186960919835437,1
632,729,48,0.129009964076789,1
633,728,48,0.158967897581588,1
633,729,48,0.144005353669186,1
634,729,48,0.16282436198356,1
634,730,48,0.138992506992397,1
635,730,48,0.128780432953405,1
638,734,48,0.127339121176322,1
638,735,48,0.118615678363042,1
639,736,48,0.115002547571709,1
639,740,48,0.128898095624197,1
639,741,48,0.151515579051084,1
639,750,48,0.130587180890499,1
640,741,48,0.115662287619527,1
588,745,49,0.114666341593753,1
588,746,49,0.127894435751023,1
588,747,49,0.154457204705207,1
588,748,49,0.163894561151095,1
589,742,49,0.134495227966684,1
589,743,49,0.139690745616014,1
589,744,49,0.119011840367122,1
589,748,49,0.129304797923578,1
589,749,49,0.129482086868238,1
589,750,49,0.129337443396848,1
590,741,49,0.134857449042206,1
590,742,49,0.197851965544846,1
590,743,49,0.184150771116227,1
590,744,49,0.126337098287559,1
590,750,49,0.131223096337875,1
590,751,49,0.160608497489502,1
591,741,49,0.130764210744101,1
591,742,49,0.182390600685188,1
591,743,49,0.168520596655615,1
591,744,49,0.113929969477189,1
591,750,49,0.115387074031925,1
591,751,49,0.129762446946395,1
591,752,49,0.118208187013621,1
592,742,49,0.118588167603461,1
594,755,49,0.132832063583018,1
597,734,49,0.12574349712065,1
603,728,49,0.135969432531228,1
604,728,49,0.128087941440522,1
605,728,49,0.115990779750084,1
605,729,49,0.116416678341467,1
605,730,49,0.122450143578843,1
612,726,49,0.136296040363183,1
618,726,49,0.118409347666188,1
619,726,49,0.121531595118121,1
619,727,49,0.115163372457339,1
620,726,49,0.133927170822691,1
620,727,49,0.128668211194825,1
621,725,49,0.140182194244994,1
621,726,49,0.158667375508396,1
621,727,49,0.139728349149979,1
621,728,49,0.118196692792153,1
622,725,49,0.127438706357407,1
622,726,49,0.13304173890989,1
622,727,49,0.123078015426564,1
622,728,49,0.121215833779991,1
623,728,49,0.120619147074122,1
624,728,49,0.114810160684505,1
626,727,49,0.115242901635185,1
627,727,49,0.117365599340269,1
628,726,49,0.113759169585838,1
628,727,49,0.119705132706911,1
629,726,49,0.128268103940549,1
629,727,49,0.138975206775862,1
629,728,49,0.116349632641855,1
630,726,49,0.132028045146664,1
630,727,49,0.162837622734967,1
630,728,49,0.158667151747937,1
631,727,49,0.173977501851559,1
631,728,49,0.195303922761093,1
631,729,49,0.137827975126128,1
632,727,49,0.168404229440112,1
632,728,49,0.190593765100887,1
632,729,49,0.148393861558132,1
633,728,49,0.164447225930888,1
633,729,49,0.155293326878983,1
633,730,49,0.117495674828098,1
634,728,49,0.148614748461682,1
634,729,49,0.162730594574407,1
634,730,49,0.135340135682689,1
635,729,49,0.137694272363492,1
635,730,49,0.123012524273299,1
638,734,49,0.117358898303368,1
639,735,49,0.130370027253553,1
639,736,49,0.126259606507576,1
639,737,49,0.116709828096381,1
639,740,49,0.133716965536838,1
639,741,49,0.164933586953644,1
639,750,49,0.132874801830671,1
639,751,49,0.148175212259171,1
640,736,49,0.145683250912542,1
640,740,49,0.120851810843931,1
640,741,49,0.135870883714375,1
640,748,49,0.11503436866434,1
640,750,49,0.213051589551903,1
587,745,50,0.116116933541448,1
587,746,50,0.15553131379234,1
587,747,50,0.179699622075651,1
588,745,50,0.116175864980207,1
588,746,50,0.1364206749388,1
588,747,50,0.15076816023397,1
588,748,50,0.150102402207493,1
588,749,50,0.119289126683185,1
589,742,50,0.124590965881099,1
589,743,50,0.128620691539471,1
589,744,50,0.115224105756636,1
589,747,50,0.119490016467828,1
589,748,50,0.132928504340812,1
589,749,50,0.12038794363573,1
589,750,50,0.121569057329691,1
589,751,50,0.157782450000843,1
590,741,50,0.128259330175186,1
590,742,50,0.164318704989406,1
590,743,50,0.148901656477479,1
590,750,50,0.120233760902669,1
590,751,50,0.160612266086705,1
590,752,50,0.156097121554878,1
591,741,50,0.127389479056445,1
591,742,50,0.163227978743981,1
591,743,50,0.144172220087207,1
591,751,50,0.116511152362595,1
593,755,50,0.138641756584611,1
594,755,50,0.130473015948986,1
594,756,50,0.148297691668263,1
602,728,50,0.142509208802802,1
603,728,50,0.128771694518641,1
603,729,50,0.120592119166058,1
603,732,50,0.12178516282554,1
604,728,50,0.125099432081823,1
604,730,50,0.120899954673197,1
605,727,50,0.155377048621216,1
605,728,50,0.115697559333972,1
613,726,50,0.123066662527491,1
617,726,50,0.117077054340063,1
618,726,50,0.142240295838649,1
618,727,50,0.118894636994114,1
619,726,50,0.139555170331643,1
619,727,50,0.133072735621883,1
620,726,50,0.139273750335523,1
620,727,50,0.142752777950767,1
620,728,50,0.114177048131299,1
621,725,50,0.131953933327297,1
621,726,50,0.151637716931054,1
621,727,50,0.15105420853853,1
621,728,50,0.130746722097707,1
622,725,50,0.120973147896996,1
622,726,50,0.129960239415212,1
622,727,50,0.135878891983431,1
622,728,50,0.131347589591097,1
623,727,50,0.117332541676681,1
623,728,50,0.122227242831162,1
624,728,50,0.117596637902534,1
625,727,50,0.120940219778936,1
625,728,50,0.116958614396098,1
626,726,50,0.121459697349612,1
626,727,50,0.141146766699055,1
626,728,50,0.126136279164114,1
627,725,50,0.114298538283624,1
627,726,50,0.129246879295318,1
627,727,50,0.150480498498732,1
627,728,50,0.128458029462705,1
628,725,50,0.126079903305333,1
628,726,50,0.128834076579214,1
628,727,50,0.137206085926466,1
629,726,50,0.12989974165324,1
629,727,50,0.139705925996622,1
629,728,50,0.119075423668053,1
630,726,50,0.139832550862637,1
630,727,50,0.168853505111019,1
630,728,50,0.17090535318869,1
630,729,50,0.120696038233926,1
631,726,50,0.150225070046445,1
631,727,50,0.182006674845151,1
631,728,50,0.206595935436016,1
631,729,50,0.159890779929092,1
632,727,50,0.173119474706542,1
632,728,50,0.192261322255667,1
632,729,50,0.169331139475877,1
633,728,50,0.173077337079068,1
633,729,50,0.167401535269971,1
633,730,50,0.125443139923586,1
634,728,50,0.157950835634612,1
634,729,50,0.158750791052107,1
634,730,50,0.131671594735609,1
635,729,50,0.13325154378229,1
635,730,50,0.117751044396054,1
639,735,50,0.127207844448136,1
639,736,50,0.130926672614141,1
639,737,50,0.11787454839251,1
639,740,50,0.121795137831261,1
639,741,50,0.15906002800633,1
639,742,50,0.122365774108965,1
639,750,50,0.136762427820764,1
639,751,50,0.168282692180321,1
640,736,50,0.147898055488637,1
640,740,50,0.132775923261563,1
640,741,50,0.164204810915817,1
640,742,50,0.144650160650588,1
640,743,50,0.121460191977994,1
640,744,50,0.117800683887334,1
640,745,50,0.120820519710282,1
640,746,50,0.132534155974136,1
640,747,50,0.121426251049437,1
640,750,50,0.203998217830383,1
641,740,50,0.12661772923364,1
641,741,50,0.131604690358393,1
641,742,50,0.129376401270432,1
586,746,51,0.166715791901454,1
587,745,51,0.132679682710496,1
587,746,51,0.17327602458972,1
587,747,51,0.174242975970765,1
587,748,51,0.14277414118616,1
588,743,51,0.117792911155604,1
588,744,51,0.12111268020843,1
588,745,51,0.126579642848159,1
588,746,51,0.16333368789552,1
588,747,51,0.177254721086592,1
588,748,51,0.1504987644183,1
589,742,51,0.113763055951703,1
589,743,51,0.12167457805137,1
589,744,51,0.115494537936537,1
589,746,51,0.13683002703309,1
589,747,51,0.15747840664464,1
589,748,51,0.142930384870816,1
589,750,51,0.114430191871532,1
589,751,51,0.158886283898414,1
590,741,51,0.11493360579663,1
590,742,51,0.131932640753101,1
590,743,51,0.122383992921067,1
590,750,51,0.117868153554131,1
590,751,51,0.15683586082156,1
590,752,51,0.160129685438018,1
591,741,51,0.123807380307704,1
591,742,51,0.144254481498025,1
591,743,51,0.120302372925493,1
593,734,51,0.115488614172808,1
593,755,51,0.136655093461682,1
594,755,51,0.121329716076713,1
594,756,51,0.129815466398292,1
600,733,51,0.11750706305777,1
601,728,51,0.162246117850253,1
602,728,51,0.144809807849592,1
602,729,51,0.142017913273084,1
602,732,51,0.13937527869954,1
603,728,51,0.127344279443744,1
603,729,51,0.114196786159148,1
603,730,51,0.128992263446802,1
603,731,51,0.137567800596739,1
603,732,51,0.117532418650825,1
604,727,51,0.185923472132967,1
604,728,51,0.125759289898303,1
605,727,51,0.167176290925906,1
605,728,51,0.121482756453746,1
606,727,51,0.131461201019895,1
611,726,51,0.130241694741931,1
612,726,51,0.135906332081814,1
613,725,51,0.148675469984113,1
613,726,51,0.120746914296164,1
616,726,51,0.117867588264551,1
617,726,51,0.135791625404453,1
618,725,51,0.115204438389984,1
618,726,51,0.15962768473687,1
618,727,51,0.137190387363743,1
619,726,51,0.154837727030895,1
619,727,51,0.148840734748322,1
620,726,51,0.141216709507766,1
620,727,51,0.154758032976921,1
620,728,51,0.123090122045078,1
621,726,51,0.135920205230266,1
621,727,51,0.15680372175354,1
621,728,51,0.137278007248708,1
622,726,51,0.127954615537606,1
622,727,51,0.143394122533488,1
622,728,51,0.131644449058882,1
623,724,51,0.114739240395895,1
623,725,51,0.127435479496052,1
623,726,51,0.130243814577857,1
623,727,51,0.130642638153711,1
623,728,51,0.117991904864778,1
624,725,51,0.119693073195862,1
624,726,51,0.123604877092384,1
624,727,51,0.126366469792008,1
624,728,51,0.116669716089903,1
625,726,51,0.114714532530484,1
625,727,51,0.135064038830118,1
625,728,51,0.125560896809308,1
626,726,51,0.134987418538238,1
626,727,51,0.165986474127779,1
626,728,51,0.13832983450488,1
627,725,51,0.1462840948522,1
627,726,51,0.166022405346735,1
627,727,51,0.187819512270034,1
627,728,51,0.139641271000861,1
628,725,51,0.164383783952352,1
628,726,51,0.154347043898222,1
628,727,51,0.157100663659389,1
628,728,51,0.117007040870154,1
629,726,51,0.131875098984561,1
629,727,51,0.138404240745903,1
629,728,51,0.120755841160788,1
630,726,51,0.152674658228275,1
630,727,51,0.171008341884123,1
630,728,51,0.171689562935997,1
630,729,51,0.12503147956351,1
631,726,51,0.18957739798902,1
631,727,51,0.198336018301815,1
631,728,51,0.211908597574022,1
631,729,51,0.177621476255624,1
632,727,51,0.192053119037078,1
632,728,51,0.207859122110934,1
632,729,51,0.200368917401677,1
632,730,51,0.127695842455301,1
633,727,51,0.19458435623268,1
633,728,51,0.201658578471945,1
633,729,51,0.195028791611555,1
633,730,51,0.141666715344381,1
634,727,51,0.19641459901796,1
634,728,51,0.183335705979322,1
634,729,51,0.16646652275022,1
634,730,51,0.138139779437196,1
635,726,51,0.221645263075878,1
635,727,51,0.201895175715084,1
635,729,51,0.132738614149255,1
635,730,51,0.122119849587748,1
636,726,51,0.242661975956538,1
636,727,51,0.22811340067,1
639,735,51,0.128441082552158,1
639,736,51,0.143478032705582,1
639,737,51,0.12804853604602,1
639,741,51,0.145358433164258,1
639,742,51,0.132321406885171,1
639,750,51,0.144020463388596,1
639,751,51,0.193999269740077,1
640,736,51,0.158298300296711,1
640,738,51,0.142314419434882,1
640,739,51,0.136419285268582,1
640,740,51,0.164611454330867,1
640,741,51,0.210269234237065,1
640,742,51,0.201570723049654,1
640,743,51,0.149787064836548,1
640,744,51,0.125317822289726,1
640,745,51,0.134600418936108,1
640,746,51,0.152510747803685,1
640,747,51,0.129892016028974,1
640,750,51,0.196395084750569,1
640,752,51,0.22254501565805,1
641,739,51,0.169389658724317,1
641,740,51,0.174163823652639,1
641,741,51,0.185884902895969,1
641,742,51,0.17972062022819,1
641,743,51,0.162663878627051,1
641,744,51,0.151846073248905,1
641,745,51,0.152480163282011,1
641,746,51,0.165311577253086,1
585,745,52,0.146488140837,1
585,746,52,0.188941011466993,1
586,745,52,0.170866677959896,1
586,746,52,0.221887678090949,1
586,747,52,0.185430928255425,1
587,744,52,0.120808519083564,1
587,745,52,0.150653382895411,1
587,746,52,0.189774295416001,1
587,747,52,0.169610616289064,1
587,748,52,0.122731328037638,1
588,743,52,0.11924604690641,1
588,744,52,0.123835644786725,1
588,745,52,0.136284828786505,1
588,746,52,0.190232815926921,1
588,747,52,0.205162290398867,1
588,748,52,0.143761572537629,1
589,743,52,0.1140749898083,1
589,745,52,0.121105625865541,1
589,746,52,0.182509476373204,1
589,747,52,0.210181378814774,1
589,748,52,0.150499094170555,1
589,751,52,0.151300003514217,1
589,752,52,0.179004457214127,1
590,746,52,0.11890938163067,1
590,747,52,0.132695169289626,1
590,750,52,0.118190403945571,1
590,751,52,0.145166529128571,1
590,752,52,0.155374999446487,1
590,753,52,0.128990214272073,1
591,742,52,0.120811663506855,1
592,755,52,0.11470626517037,1
593,734,52,0.122159219651652,1
593,755,52,0.121293608204764,1
593,756,52,0.122450673537824,1
600,729,52,0.153919920512748,1
601,728,52,0.150166656789802,1
601,729,52,0.141247282252573,1
601,730,52,0.136662571771756,1
601,731,52,0.123739592665518,1
602,728,52,0.134985734446363,1
602,729,52,0.127665823223208,1
602,730,52,0.13809509800661,1
602,731,52,0.14669939426395,1
602,732,52,0.126637349492827,1
603,727,52,0.155016629406232,1
603,728,52,0.118839474152558,1
603,730,52,0.11846471071447,1
603,731,52,0.131787102239875,1
604,727,52,0.172835381361781,1
604,728,52,0.118461660506109,1
605,726,52,0.164529263581247,1
605,727,52,0.164756380447048,1
605,728,52,0.122470741317929,1
606,726,52,0.120171814586148,1
606,727,52,0.136480878279115,1
606,728,52,0.116434755831174,1
607,727,52,0.116323323122633,1
611,725,52,0.129775389722414,1
611,726,52,0.11992259254238,1
612,725,52,0.165910301356817,1
612,726,52,0.12393762067166,1
613,725,52,0.141755618907768,1
613,726,52,0.11419876467268,1
614,726,52,0.116203093094997,1
615,726,52,0.11916146545294,1
616,726,52,0.126757744396591,1
617,725,52,0.115155540841277,1
617,726,52,0.145134496052347,1
617,727,52,0.12568661485662,1
618,725,52,0.124049524454851,1
618,726,52,0.160754695507239,1
618,727,52,0.14520670001938,1
619,725,52,0.125446225462546,1
619,726,52,0.160447189752355,1
619,727,52,0.155098619949126,1
620,726,52,0.145405752612886,1
620,727,52,0.165548998876864,1
620,728,52,0.129060416171842,1
621,726,52,0.127678400916372,1
621,727,52,0.163914676038665,1
621,728,52,0.140496295044982,1
622,726,52,0.128470689593933,1
622,727,52,0.146226553083659,1
622,728,52,0.125765990935205,1
623,724,52,0.13712964228758,1
623,725,52,0.154194851455559,1
623,726,52,0.149674289565254,1
623,727,52,0.137113990832322,1
624,724,52,0.122318666643929,1
624,725,52,0.132511662159581,1
624,726,52,0.135591677769111,1
624,727,52,0.133966529109728,1
625,726,52,0.115305825431606,1
625,727,52,0.143917109610309,1
625,728,52,0.125326808038682,1
626,726,52,0.147102999247505,1
626,727,52,0.182221555546909,1
626,728,52,0.140376229893474,1
627,725,52,0.179727486141219,1
627,726,52,0.204523112759537,1
627,727,52,0.213026528380505,1
627,728,52,0.140247402753469,1
628,725,52,0.207681479860287,1
628,726,52,0.182064970333132,1
628,727,52,0.16907674738782,1
628,728,52,0.116741378321088,1
629,725,52,0.172581283695381,1
629,726,52,0.136916033487378,1
629,727,52,0.133423792228192,1
629,728,52,0.117608414768793,1
630,726,52,0.166567450494058,1
630,727,52,0.169706633079672,1
630,728,52,0.164095415605139,1
630,729,52,0.125009609922867,1
631,726,52,0.233409009905664,1
631,727,52,0.222951176221584,1
631,728,52,0.216166923983343,1
631,729,52,0.189338869339814,1
632,726,52,0.224360301823181,1
632,727,52,0.22352520423677,1
632,728,52,0.234104551626908,1
632,729,52,0.232560227600659,1
632,730,52,0.150974078740505,1
633,727,52,0.226304238475324,1
633,728,52,0.237779310759373,1
633,729,52,0.225883215506572,1
633,730,52,0.161015882847126,1
634,726,52,0.230492139224417,1
634,727,52,0.240550101191546,1
634,728,52,0.21456998091865,1
634,729,52,0.179493314932529,1
634,730,52,0.147622158842792,1
635,725,52,0.246864692003385,1
635,726,52,0.285499314162417,4
635,727,52,0.246836309755702,1
635,728,52,0.180150817375758,1
635,729,52,0.137951820651705,1
635,730,52,0.130502917412417,1
636,725,52,0.250444246949014,1
636,726,52,0.280873266881031,1
636,727,52,0.247354798069611,1
636,728,52,0.173420079217798,1
636,730,52,0.115049855243471,1
637,726,52,0.218248697078178,1
637,727,52,0.229650658576493,1
639,735,52,0.122459989039035,1
639,736,52,0.147249515240631,1
639,737,52,0.134875773846105,1
639,741,52,0.128334643234911,1
639,742,52,0.126014765458056,1
639,750,52,0.142826677786541,1
639,751,52,0.207433435503144,1
639,752,52,0.19742201571147,1
640,737,52,0.166564859583481,1
640,738,52,0.152669558845185,1
640,739,52,0.16574131510287,1
640,740,52,0.201338812999286,1
640,741,52,0.241897468906482,1
640,742,52,0.234252398405921,1
640,743,52,0.157867408314034,1
640,744,52,0.1189152700638,1
640,745,52,0.133252321055463,1
640,746,52,0.154063150760187,1
640,747,52,0.127976579393179,1
640,749,52,0.129419905014392,1
640,750,52,0.188314117099171,1
640,751,52,0.252798301191753,1
640,752,52,0.236215507796333,1
640,753,52,0.195984413647259,1
641,738,52,0.157462095684871,1
641,739,52,0.191117717880741,1
641,740,52,0.214662688409839,1
641,741,52,0.228793820894968,1
641,742,52,0.217826378654138,1
641,743,52,0.170969643101597,1
641,744,52,0.149940069882982,1
641,745,52,0.172288157494199,1
641,746,52,0.199057092269109,1
641,747,52,0.155266310747785,1
641,751,52,0.220740281565087,1
641,752,52,0.230978971321823,1
642,743,52,0.115706815950851,1
642,744,52,0.116244995185146,1
642,745,52,0.120443035816088,1
642,746,52,0.128778042249555,1
584,745,53,0.120887188550173,1
584,746,53,0.135876866362434,1
585,744,53,0.133439149261793,1
585,745,53,0.204920558442039,1
585,746,53,0.270707899893622,1
585,747,53,0.200959597905753,1
586,744,53,0.142089599058001,1
586,745,53,0.233901706882467,1
586,746,53,0.299380706421661,1
586,747,53,0.204494000346146,1
586,748,53,0.129017571932392,1
587,744,53,0.135156993635499,1
587,745,53,0.176672037074706,1
587,746,53,0.210244620586584,1
587,747,53,0.16483910115565,1
588,743,53,0.120990236129937,1
588,744,53,0.131817592546619,1
588,745,53,0.153869397756498,1
588,746,53,0.209996623336906,1
588,747,53,0.21102241194178,1
588,748,53,0.134233145584961,1
589,745,53,0.138257866075173,1
589,746,53,0.219203141427256,1
589,747,53,0.237630875137047,1
589,748,53,0.152371309707181,1
589,749,53,0.113840865707075,1
589,750,53,0.118580759954585,1
589,751,53,0.141131810078906,1
589,752,53,0.172129947072879,1
590,746,53,0.137643231425126,1
590,747,53,0.152512161027636,1
590,748,53,0.12072517420105,1
590,749,53,0.115881761299126,1
590,750,53,0.126762313820699,1
590,751,53,0.134625079694054,1
590,752,53,0.146137237329953,1
590,753,53,0.134810506453299,1
593,733,53,0.157798925836739,1
593,734,53,0.131647628812772,1
594,734,53,0.155789486254466,1
600,728,53,0.144867337841266,1
600,729,53,0.144155697143846,1
601,728,53,0.135032276621818,1
601,729,53,0.122554309960902,1
601,730,53,0.115926607605839,1
602,727,53,0.141058970161095,1
602,728,53,0.121975688967875,1
602,730,53,0.119295780612621,1
602,731,53,0.130063004350186,1
602,732,53,0.11380376857836,1
603,727,53,0.134631556970496,1
603,731,53,0.123855865666092,1
604,726,53,0.156611770610387,1
604,727,53,0.147930583193244,1
605,726,53,0.142845049697905,1
605,727,53,0.151952347690024,1
605,728,53,0.121183894918697,1
606,726,53,0.11754480791413,1
606,727,53,0.136853498327544,1
606,728,53,0.117860981442579,1
607,727,53,0.11904480381578,1
614,725,53,0.116103142831059,1
614,726,53,0.128959464874272,1
615,726,53,0.127929990110259,1
616,726,53,0.127722175528256,1
617,725,53,0.120340023566923,1
617,726,53,0.147160493908581,1
617,727,53,0.132010085425619,1
618,725,53,0.132165975804287,1
618,726,53,0.153559901711216,1
618,727,53,0.145202154149004,1
619,725,53,0.151280442139361,1
619,726,53,0.159408116842341,1
619,727,53,0.150685015558182,1
620,725,53,0.12924325202051,1
620,726,53,0.151210511107516,1
620,727,53,0.163927312616161,1
620,728,53,0.124383186629695,1
621,726,53,0.129324630166358,1
621,727,53,0.16066900702834,1
621,728,53,0.129739305404197,1
622,725,53,0.120871713747909,1
622,726,53,0.132202130783701,1
622,727,53,0.140964154610846,1
623,724,53,0.169540920794545,1
623,725,53,0.179575835434405,1
623,726,53,0.16177545539022,1
623,727,53,0.136315130663389,1
624,724,53,0.140620540984013,1
624,725,53,0.145679647191467,1
624,726,53,0.14574838875982,1
624,727,53,0.137273932452983,1
625,726,53,0.123784733393888,1
625,727,53,0.147633064220948,1
625,728,53,0.116769548585179,1
626,725,53,0.115168177418773,1
626,726,53,0.156411976074307,1
626,727,53,0.179112403970255,1
626,728,53,0.129401438888098,1
627,724,53,0.154082794573107,1
627,725,53,0.198314348867899,1
627,726,53,0.223455744279576,1
627,727,53,0.207273953180267,1
627,728,53,0.130291923076524,1
628,725,53,0.239105503668776,1
628,726,53,0.20492084108683,1
628,727,53,0.167013299096884,1
629,725,53,0.20245544835048,1
629,726,53,0.15444689994723,1
629,727,53,0.130288613777106,1
630,726,53,0.179438929364146,1
630,727,53,0.167678209188989,1
630,728,53,0.151447897400695,1
630,729,53,0.11798116436275,1
631,725,53,0.202983805678315,1
631,726,53,0.258965398530567,1
631,727,53,0.250590492074216,1
631,728,53,0.218957381782168,1
631,729,53,0.183641904502051,1
631,730,53,0.116103555021378,1
632,725,53,0.183277752020463,1
632,726,53,0.248415069338891,1
632,727,53,0.26582563510991,4
632,728,53,0.258230427861088,1
632,729,53,0.238935563488662,1
632,730,53,0.160412436220025,1
633,726,53,0.217502349955893,1
633,727,53,0.260321292696675,4
633,728,53,0.265541011806167,1
633,729,53,0.238195151906971,1
633,730,53,0.171186796738543,1
634,725,53,0.205618502644001,1
634,726,53,0.257318874858925,4
634,727,53,0.280436981093607,4
634,728,53,0.244589990285499,1
634,729,53,0.190392215811734,1
634,730,53,0.15392284117558,1
635,724,53,0.19018308222071,1
635,725,53,0.299615136721409,4
635,726,53,0.326891748647003,4
635,727,53,0.286533417234869,4
635,728,53,0.209228489012042,1
635,729,53,0.15218231455746,1
635,730,53,0.141207076031166,1
635,731,53,0.118699529650805,1
636,724,53,0.192652337769192,1
636,725,53,0.293041242868283,1
636,726,53,0.29661189450302,4
636,727,53,0.248902184081087,1
636,728,53,0.180297898658464,1
636,730,53,0.132079203853692,1
636,731,53,0.117916191391601,1
637,725,53,0.188137169683633,1
637,726,53,0.216030123904881,1
637,727,53,0.226752112699146,1
638,727,53,0.213331926076328,1
638,728,53,0.193006315038333,1
638,752,53,0.119952988634193,1
638,753,53,0.114952060146058,1
639,727,53,0.185360785239988,1
639,728,53,0.190170433866348,1
639,735,53,0.11412167330615,1
639,736,53,0.141397013330188,1
639,737,53,0.140654175714048,1
639,738,53,0.123167072089213,1
639,741,53,0.114218961998314,1
639,750,53,0.138266357195745,1
639,751,53,0.207299603194979,1
639,752,53,0.215805939478779,1
640,736,53,0.147558222235873,1
640,737,53,0.169725711603011,1
640,738,53,0.180223374648779,1
640,739,53,0.207501011161737,1
640,740,53,0.232778829792155,1
640,741,53,0.244914725595719,1
640,742,53,0.226531249349328,1
640,743,53,0.146373893457423,1
640,745,53,0.117603056294646,1
640,746,53,0.136214073374022,1
640,747,53,0.11514149103983,1
640,749,53,0.123700010618023,1
640,750,53,0.180813419202077,1
640,751,53,0.251421326435042,1
640,752,53,0.251738171244868,1
640,753,53,0.192815011622825,1
641,737,53,0.126105011584197,1
641,738,53,0.157276504049499,1
641,739,53,0.208288388886068,1
641,740,53,0.241298450381095,1
641,741,53,0.251011915456421,1
641,742,53,0.234621909361657,1
641,743,53,0.169910914601797,1
641,744,53,0.144529188680378,1
641,745,53,0.179341852655575,1
641,746,53,0.21235821477405,1
641,747,53,0.16260010689626,1
641,750,53,0.168285695281217,1
641,751,53,0.244282354985086,1
641,752,53,0.249322241346806,1
641,753,53,0.193069568587009,1
642,742,53,0.130217964356419,1
642,743,53,0.124048794289143,1
642,744,53,0.128399722197857,1
642,745,53,0.139465041974165,1
642,746,53,0.151629296471679,1
642,751,53,0.240998988225866,1
642,752,53,0.23805583157913,1
584,745,54,0.125081731451836,1
584,746,54,0.14645858090269,1
584,747,54,0.118053250561121,1
585,744,54,0.149696547842483,1
585,745,54,0.239758318919234,1
585,746,54,0.311959695041346,1
585,747,54,0.204740325280815,1
585,748,54,0.137310994251099,1
586,744,54,0.158952305010661,1
586,745,54,0.269545146334158,1
586,746,54,0.33335067673171,1
586,747,54,0.200890373485884,1
586,748,54,0.120132150100589,1
587,744,54,0.140936184553481,1
587,745,54,0.195531981776195,1
587,746,54,0.22033923216151,1
587,747,54,0.152537104430372,1
588,744,54,0.130185683966004,1
588,745,54,0.17071304873955,1
588,746,54,0.21862911341207,1
588,747,54,0.191715511612037,1
588,748,54,0.120494583159703,1
589,745,54,0.158804316909253,1
589,746,54,0.241155903191898,1
589,747,54,0.231082560637436,1
589,748,54,0.147089679611767,1
589,749,54,0.125224961699276,1
589,750,54,0.129048368437659,1
589,751,54,0.127293980447952,1
589,752,54,0.160901976996671,1
590,746,54,0.155412720749114,1
590,747,54,0.158557544453666,1
590,748,54,0.122400633633091,1
590,749,54,0.119905174557183,1
590,750,54,0.125616942915833,1
590,751,54,0.117834035972579,1
590,752,54,0.130155134774929,1
590,753,54,0.133134823260799,1
593,733,54,0.145320900291492,1
593,734,54,0.136090498716369,1
594,732,54,0.150025334394696,1
594,734,54,0.160072438091134,1
594,735,54,0.117830773780626,1
595,735,54,0.115921567107081,1
599,728,54,0.130863065759477,1
599,729,54,0.155430350717904,1
600,728,54,0.130070824189382,1
600,729,54,0.129827007727226,1
600,730,54,0.136426775355522,1
601,727,54,0.151907289399718,1
601,728,54,0.119289103129453,1
602,727,54,0.123667235599224,1
604,726,54,0.116299368976663,1
604,727,54,0.118553614277858,1
605,726,54,0.117884334968371,1
605,727,54,0.129890920780412,1
606,727,54,0.127494976224391,1
607,727,54,0.115434004843966,1
613,725,54,0.116958484850569,1
614,725,54,0.120233619580274,1
614,726,54,0.13426686275306,1
614,727,54,0.115339271731781,1
615,726,54,0.126939885410149,1
615,727,54,0.116498115371646,1
616,726,54,0.120334453109182,1
617,725,54,0.122108013837158,1
617,726,54,0.140496224383785,1
617,727,54,0.130522419902942,1
618,725,54,0.137051914970272,1
618,726,54,0.145817142105039,1
618,727,54,0.140640738309647,1
619,724,54,0.128683026492579,1
619,725,54,0.169118873238428,1
619,726,54,0.153937197175549,1
619,727,54,0.139330903467477,1
620,725,54,0.147951239816662,1
620,726,54,0.148724120218628,1
620,727,54,0.146782550716603,1
621,726,54,0.125833861015454,1
621,727,54,0.141902252669557,1
622,724,54,0.127596186613019,1
622,725,54,0.126270994737248,1
622,726,54,0.12682608555149,1
622,727,54,0.124505995791042,1
623,724,54,0.193676536497121,1
623,725,54,0.185111292328295,1
623,726,54,0.155029619289716,1
623,727,54,0.124154797862339,1
624,724,54,0.155266499177645,1
624,725,54,0.150273567181699,1
624,726,54,0.145702776956799,1
624,727,54,0.132164633241533,1
625,726,54,0.127768470389519,1
625,727,54,0.140513218401796,1
626,726,54,0.151138943091262,1
626,727,54,0.156412258719097,1
627,724,54,0.176309132940941,1
627,725,54,0.193491639696858,1
627,726,54,0.212868765480102,1
627,727,54,0.175820322330003,1
628,724,54,0.236292646270328,1
628,725,54,0.251672479884877,1
628,726,54,0.221659253992994,1
628,727,54,0.155171094784082,1
629,725,54,0.229842809926372,1
629,726,54,0.188734869199999,1
629,727,54,0.132375768899821,1
630,726,54,0.19418608616954,1
630,727,54,0.173059801325208,1
630,728,54,0.1406950296631,1
631,725,54,0.194159093592075,1
631,726,54,0.263946541883389,1
631,727,54,0.281542711066646,4
631,728,54,0.220265650301125,1
631,729,54,0.167870902274716,1
631,730,54,0.114606644658687,1
632,725,54,0.181967092797655,1
632,726,54,0.263076231466863,4
632,727,54,0.316611651428501,4
632,728,54,0.274691731104183,4
632,729,54,0.223240345395702,1
632,730,54,0.159327610184596,1
633,725,54,0.172124847689789,1
633,726,54,0.23130928886665,4
633,727,54,0.294010973589765,4
633,728,54,0.280843471409396,4
633,729,54,0.231416434795873,1
633,730,54,0.170727569615647,1
634,725,54,0.227274298949061,4
634,726,54,0.269340228861255,4
634,727,54,0.308814635799469,4
634,728,54,0.273036940072427,4
634,729,54,0.201229924093857,1
634,730,54,0.154262509552216,1
635,724,54,0.239146063196172,4
635,725,54,0.330427517203882,4
635,726,54,0.331818553538906,4
635,727,54,0.31098871597204,4
635,728,54,0.246976642894041,4
635,729,54,0.178254070626715,1
635,730,54,0.148785901659021,1
635,731,54,0.116893370557024,1
636,724,54,0.222012512873293,1
636,725,54,0.308351098343523,4
636,726,54,0.284770867876845,4
636,727,54,0.239716605258946,4
636,728,54,0.190636809547063,1
636,730,54,0.148900749658777,1
636,731,54,0.122397983838182,1
637,725,54,0.188428399809347,1
637,726,54,0.199964570475547,1
637,727,54,0.212895475412777,1
637,728,54,0.191043040771794,1
637,731,54,0.120600692724695,1
638,726,54,0.164879790228574,1
638,727,54,0.241760244860835,1
638,728,54,0.2380191584176,1
638,729,54,0.160543889601206,1
638,752,54,0.123322856476085,1
638,753,54,0.127941908298913,1
639,726,54,0.141207264461026,1
639,727,54,0.214456287051788,1
639,728,54,0.217463392082309,1
639,729,54,0.145799582797447,1
639,736,54,0.122131449801013,1
639,737,54,0.129784210595241,1
639,738,54,0.128334195713993,1
639,739,54,0.117432162188364,1
639,750,54,0.130745921270801,1
639,751,54,0.198132325623003,1
639,752,54,0.222038421979062,1
640,727,54,0.141311501504283,1
640,728,54,0.14077020140043,1
640,736,54,0.13008549816474,1
640,737,54,0.158061502846845,1
640,738,54,0.190116672471877,1
640,739,54,0.218027715959698,1
640,740,54,0.225769191887454,1
640,741,54,0.213355786007368,1
640,742,54,0.185481250804949,1
640,743,54,0.122186600865703,1
640,749,54,0.115941670217784,1
640,750,54,0.174012761789138,1
640,751,54,0.253578377259003,1
640,752,54,0.268159857109868,1
640,753,54,0.195576427669455,1
641,737,54,0.117940263306234,1
641,738,54,0.148095612420128,1
641,739,54,0.19499937299964,1
641,740,54,0.228011389454466,1
641,741,54,0.233661246827194,1
641,742,54,0.215001579513303,1
641,743,54,0.154454967100617,1
641,744,54,0.133441657734306,1
641,745,54,0.1677760749476,1
641,746,54,0.19725253482914,1
641,747,54,0.154688820333918,1
641,750,54,0.188309076600413,1
641,751,54,0.2785834672206,1
641,752,54,0.269652174494718,1
641,753,54,0.184019317735047,1
642,741,54,0.129870758785377,1
642,742,54,0.130775021907327,1
642,743,54,0.124448065385915,1
642,745,54,0.152479703984227,1
642,746,54,0.170514431890096,1
642,750,54,0.185681528192546,1
642,751,54,0.277126598203189,1
642,752,54,0.252467182820021,1
642,753,54,0.169204031758345,1
643,751,54,0.19450408511226,1
643,752,54,0.202389898312884,1
584,745,55,0.118216843010322,1
584,746,55,0.139609520569427,1
585,744,55,0.155750928794334,1
585,745,55,0.238753045615383,1
585,746,55,0.290600534443612,1
585,747,55,0.18889200792649,1
586,744,55,0.173033680235846,1
586,745,55,0.279923768815781,1
586,746,55,0.317820169890246,1
586,747,55,0.187375441974014,1
587,744,55,0.147824932926036,1
587,745,55,0.217416779245657,1
587,746,55,0.229367142298179,1
587,747,55,0.148860743644096,1
588,744,55,0.128083277801483,1
588,745,55,0.185802464832158,1
588,746,55,0.213788350305054,1
588,747,55,0.163539794831915,1
588,748,55,0.114486650168376,1
588,749,55,0.11653159700242,1
588,750,55,0.120864364983363,1
589,745,55,0.173775210619832,1
589,746,55,0.226696879196392,1
589,747,55,0.189788474762976,1
589,748,55,0.136018542063527,1
589,749,55,0.136790927837111,1
589,750,55,0.134279499330556,1
589,751,55,0.116622078665886,1
589,752,55,0.145595348382787,1
590,745,55,0.126308174304027,1
590,746,55,0.161237158387263,1
590,747,55,0.145727602590873,1
590,748,55,0.11733997287929,1
590,749,55,0.118049352418389,1
590,750,55,0.116123245941763,1
590,752,55,0.115012487246832,1
590,753,55,0.127149819828078,1
593,733,55,0.127889760335119,1
593,734,55,0.131740819155478,1
594,732,55,0.136211635562707,1
594,733,55,0.162584785193257,1
594,734,55,0.156519805061772,1
594,735,55,0.125776225031984,1
595,734,55,0.145206158283532,1
595,735,55,0.124113967467019,1
596,734,55,0.152957149919225,1
598,729,55,0.121151673412613,1
599,729,55,0.121992871415746,1
599,730,55,0.155411142649036,1
606,727,55,0.114865476625323,1
614,725,55,0.117417605981668,1
614,726,55,0.124655173355942,1
615,726,55,0.117718787559371,1
617,725,55,0.119307875454269,1
617,726,55,0.123539126848061,1
617,727,55,0.113982070333518,1
618,725,55,0.135183185386058,1
618,726,55,0.134034858487762,1
618,727,55,0.123627064708416,1
619,724,55,0.131549810161627,1
619,725,55,0.165038130195423,1
619,726,55,0.143666132813468,1
619,727,55,0.122111523343303,1
620,724,55,0.119568744818768,1
620,725,55,0.153857856427564,1
620,726,55,0.140387523908216,1
620,727,55,0.123659969272743,1
621,725,55,0.122756624746362,1
621,726,55,0.122672055069757,1
621,727,55,0.117522526083168,1
622,724,55,0.141062126361253,1
622,725,55,0.132314211219886,1
622,726,55,0.118976415553415,1
623,724,55,0.192897579232165,1
623,725,55,0.171247035409457,1
623,726,55,0.139630648267496,1
624,724,55,0.15999479321189,1
624,725,55,0.151504744334126,1
624,726,55,0.144187836211866,1
624,727,55,0.123713483353023,1
625,726,55,0.133164913154091,1
625,727,55,0.12783003984632,1
626,726,55,0.136135545229809,1
626,727,55,0.126752468360507,1
627,724,55,0.182378234975616,1
627,725,55,0.171512709735389,1
627,726,55,0.176253970099385,1
627,727,55,0.136670391610952,1
628,725,55,0.239158428905744,1
628,726,55,0.215896338704181,1
628,727,55,0.139914470744333,1
629,725,55,0.242897277744389,1
629,726,55,0.221078654486435,1
629,727,55,0.145063434441342,1
630,726,55,0.210956343722068,1
630,727,55,0.188954107342273,1
630,728,55,0.144677753848232,1
631,725,55,0.178484873651655,1
631,726,55,0.253002700482541,1
631,727,55,0.294731505821211,4
631,728,55,0.220240589129726,1
631,729,55,0.156005309105524,1
631,730,55,0.114192805578353,1
632,725,55,0.17647430349022,1
632,726,55,0.267005865538901,4
632,727,55,0.344409601669639,4
632,728,55,0.276078951734539,4
632,729,55,0.200730278765962,1
632,730,55,0.157090629769336,1
633,725,55,0.180217509769382,1
633,726,55,0.243184821710964,4
633,727,55,0.313892278794414,4
633,728,55,0.285567384449392,4
633,729,55,0.217754681092354,1
633,730,55,0.170703391709218,1
633,731,55,0.115758363294466,1
634,724,55,0.192222505704478,1
634,725,55,0.241677288614908,4
634,726,55,0.26721111276406,4
634,727,55,0.313804988661704,4
634,728,55,0.295673961320437,4
634,729,55,0.21677884995415,1
634,730,55,0.159536849767416,1
635,723,55,0.158162984103397,1
635,724,55,0.278117433069007,4
635,725,55,0.328708895557003,4
635,726,55,0.303757861411534,4
635,727,55,0.305659330683947,4
635,728,55,0.28020648426719,4
635,729,55,0.213038564337821,1
635,730,55,0.162143023163023,1
635,731,55,0.115689975032101,1
636,724,55,0.239347706700255,1
636,725,55,0.287949491187559,4
636,726,55,0.252588767187276,4
636,727,55,0.225354599087679,4
636,728,55,0.204901880332153,1
636,730,55,0.163763201984845,1
636,731,55,0.125980906967562,1
637,725,55,0.179608763552464,1
637,726,55,0.182738100677886,1
637,727,55,0.200258238412576,1
637,728,55,0.20148769614253,1
637,731,55,0.13415164967045,1
638,726,55,0.159083899714237,1
638,727,55,0.252809866074419,1
638,728,55,0.268015943804186,1
638,729,55,0.166953743484213,1
638,752,55,0.125165111664948,1
639,726,55,0.137098433591994,1
639,727,55,0.2275108961922,1
639,728,55,0.231999154138358,1
639,729,55,0.136216829160727,1
639,738,55,0.118093386121331,1
639,750,55,0.128582781806984,1
639,751,55,0.187900595994226,1
639,752,55,0.219421531635159,1
640,727,55,0.140326767055187,1
640,728,55,0.133607028490312,1
640,737,55,0.1323292149475,1
640,738,55,0.175013124139759,1
640,739,55,0.199142215458428,1
640,740,55,0.191210472479395,1
640,741,55,0.165703158056191,1
640,742,55,0.135513608922681,1
640,750,55,0.176080049338475,1
640,751,55,0.256202663474916,1
640,752,55,0.274932403143048,1
640,753,55,0.207033398910065,1
641,738,55,0.134916545357093,1
641,739,55,0.17007714506904,1
641,740,55,0.195092575119213,1
641,741,55,0.194373797640839,1
641,742,55,0.174229880095485,1
641,743,55,0.130331846653142,1
641,744,55,0.118805309463541,1
641,745,55,0.144840639685458,1
641,746,55,0.16547519325602,1
641,750,55,0.206239779446617,1
641,751,55,0.29343583854915,1
641,752,55,0.275233890919273,1
641,753,55,0.179983161907698,1
642,741,55,0.121866034566139,1
642,742,55,0.121907406697306,1
642,750,55,0.201792387226377,1
642,751,55,0.276522209426788,1
642,752,55,0.24540188744538,1
642,753,55,0.165822740356183,1
643,751,55,0.219172121161531,1
643,752,55,0.227331605180276,1
584,746,56,0.12055471583882,1
585,745,56,0.206281634429301,1
585,746,56,0.225997474663014,1
585,747,56,0.156196612521032,1
586,744,56,0.173041005446659,1
586,745,56,0.267718837022209,1
586,746,56,0.273254293916099,1
586,747,56,0.169953970824839,1
587,744,56,0.147556196614876,1
587,745,56,0.233544326098977,1
587,746,56,0.236018033302905,1
587,747,56,0.15552564911967,1
588,744,56,0.118982563077602,1
588,745,56,0.187987297283623,1
588,746,56,0.197547698428184,1
588,747,56,0.142823038734867,1
588,749,56,0.125781559952399,1
588,750,56,0.12597508919563,1
589,745,56,0.175743890467983,1
589,746,56,0.19194325265175,1
589,747,56,0.145845182823601,1
589,748,56,0.122040732600222,1
589,749,56,0.136050810677077,1
589,750,56,0.126360934664867,1
589,752,56,0.126690745804444,1
590,745,56,0.140842216937602,1
590,746,56,0.153450141317684,1
590,747,56,0.122807324155606,1
590,753,56,0.121600218917812,1
592,755,56,0.120791996140203,1
593,734,56,0.114889360110096,1
593,737,56,0.126710707592753,1
593,738,56,0.13762540124961,1
594,733,56,0.137588209905965,1
594,734,56,0.139288518525811,1
594,735,56,0.126316794970129,1
594,736,56,0.121881850897524,1
594,737,56,0.123560596075251,1
595,731,56,0.123205688433676,1
595,733,56,0.133995441316394,1
595,734,56,0.129978681987773,1
595,735,56,0.125018230588969,1
596,730,56,0.115462151554325,1
596,734,56,0.142235832406337,1
598,734,56,0.142847746600278,1
599,730,56,0.114008909811722,1
599,733,56,0.115858372442736,1
618,725,56,0.120417032495389,1
619,725,56,0.136635932500279,1
619,726,56,0.121047636576082,1
620,724,56,0.113901398799645,1
620,725,56,0.136395437114408,1
620,726,56,0.118670476121744,1
621,724,56,0.123029223869654,1
621,725,56,0.131469421272544,1
622,724,56,0.14462604162849,1
622,725,56,0.132282460788453,1
623,724,56,0.167543929359907,1
623,725,56,0.144644378209255,1
623,726,56,0.118432277224794,1
624,724,56,0.146425169933114,1
624,725,56,0.141641583511784,1
624,726,56,0.134895288113496,1
625,724,56,0.114034995570485,1
625,725,56,0.123048278839261,1
625,726,56,0.129704328111408,1
626,724,56,0.124453129438406,1
626,725,56,0.115789689758715,1
626,726,56,0.115484080079299,1
627,725,56,0.149377241667608,1
627,726,56,0.134030018195729,1
628,725,56,0.215594285638375,1
628,726,56,0.191013881250937,1
628,727,56,0.125145609174424,1
629,726,56,0.235366183755481,1
629,727,56,0.161274585268233,1
629,728,56,0.114532120649001,1
630,726,56,0.226256777704301,1
630,727,56,0.207468930978048,1
630,728,56,0.155125412319865,1
631,725,56,0.169482272000576,1
631,726,56,0.236899413973713,1
631,727,56,0.282459445889963,4
631,728,56,0.209444241201904,1
631,729,56,0.146518913788534,1
631,730,56,0.113997321375323,1
632,725,56,0.166307370179599,1
632,726,56,0.260620095347394,4
632,727,56,0.338259839877958,4
632,728,56,0.256684455073563,4
632,729,56,0.176016689798002,1
632,730,56,0.152464288066294,1
632,731,56,0.120301360114995,1
633,725,56,0.180720429066097,1
633,726,56,0.251543640968006,4
633,727,56,0.316937116904429,4
633,728,56,0.275012721370933,4
633,729,56,0.198233017829516,1
633,730,56,0.164140485672312,1
633,731,56,0.14430851376042,1
634,724,56,0.203953677722192,1
634,725,56,0.238765058018967,1
634,726,56,0.252614487863186,4
634,727,56,0.296321476981079,4
634,728,56,0.300598293070426,4
634,729,56,0.230621307893544,1
634,730,56,0.160688768609922,1
634,731,56,0.128260790506602,1
635,723,56,0.188503971960129,1
635,724,56,0.295757789054467,1
635,725,56,0.300189847794838,4
635,726,56,0.258043693869689,4
635,727,56,0.272826346149987,4
635,728,56,0.287704320385784,1
635,729,56,0.242200817427576,1
635,730,56,0.17179381175612,1
635,731,56,0.118720468919013,1
636,724,56,0.239359695550106,1
636,725,56,0.245191529060265,1
636,726,56,0.215511329392448,1
636,727,56,0.213768282524949,1
636,728,56,0.215259846190358,1
636,730,56,0.168026368686198,1
636,731,56,0.130590466636185,1
637,727,56,0.198239542213423,1
637,728,56,0.211098184299289,1
637,729,56,0.165990937560091,1
637,731,56,0.142817574268923,1
638,726,56,0.150787862931221,1
638,727,56,0.237354943160604,1
638,728,56,0.265052248302694,1
638,729,56,0.160201960066248,1
639,726,56,0.125887316211403,1
639,727,56,0.205286159478177,1
639,728,56,0.215110279988871,1
639,729,56,0.12117091681208,1
639,750,56,0.13123661618034,1
639,751,56,0.180017962547493,1
639,752,56,0.211092602064682,1
639,753,56,0.222288256419876,1
639,754,56,0.224566703181233,1
640,727,56,0.125144949669913,1
640,728,56,0.118091855128717,1
640,738,56,0.143267909857793,1
640,739,56,0.160918782584822,1
640,740,56,0.146055140795263,1
640,741,56,0.120055659354238,1
640,750,56,0.184861811193469,1
640,751,56,0.251297645785592,1
640,752,56,0.258416078380792,1
640,753,56,0.206425053106601,1
641,741,56,0.14720066479939,1
641,742,56,0.128809321606338,1
641,750,56,0.217684137663464,1
641,751,56,0.283295108765955,1
641,752,56,0.25861440080859,1
641,753,56,0.171321559419142,1
642,750,56,0.208404461679914,1
642,751,56,0.253572300396014,1
642,752,56,0.227128878204497,1
643,751,56,0.234997638502778,1
585,745,57,0.167055954906473,1
585,746,57,0.164266851447269,1
586,744,57,0.157482469663499,1
586,745,57,0.237947272425956,1
586,746,57,0.22348900214989,1
586,747,57,0.154492523527117,1
587,744,57,0.140021322251899,1
587,745,57,0.227863731105314,1
587,746,57,0.228249235045429,1
587,747,57,0.169688108069047,1
587,748,57,0.129532209211036,1
588,745,57,0.17700088251125,1
588,746,57,0.180303492669937,1
588,747,57,0.145012487717906,1
588,748,57,0.132190318586844,1
588,749,57,0.140097636345256,1
589,745,57,0.160579973919423,1
589,746,57,0.155446873661265,1
589,747,57,0.121879165772017,1
589,748,57,0.117215020328284,1
589,749,57,0.129642935307601,1
589,750,57,0.11585429764701,1
590,745,57,0.14232305187785,1
590,746,57,0.138243050777419,1
590,753,57,0.127917730392483,1
592,754,57,0.123356526536719,1
592,755,57,0.135162163679786,1
593,736,57,0.114820383004418,1
593,737,57,0.137858394771674,1
593,738,57,0.159230568806624,1
593,739,57,0.125842104821835,1
593,755,57,0.114974577514344,1
594,734,57,0.116011436373502,1
594,735,57,0.120886670368057,1
594,736,57,0.127562080808334,1
594,737,57,0.13389834105409,1
594,738,57,0.124064716612325,1
595,732,57,0.123404540820456,1
595,733,57,0.119483539191385,1
595,734,57,0.117329503245186,1
595,735,57,0.11935250977739,1
596,731,57,0.163891675818862,1
596,733,57,0.150666667200551,1
596,734,57,0.132378512909659,1
597,730,57,0.123559995455072,1
597,734,57,0.157070090914581,1
598,730,57,0.116879638730966,1
598,733,57,0.167864778304261,1
598,734,57,0.126148621319953,1
599,731,57,0.123045523052556,1
599,732,57,0.125518547198241,1
620,725,57,0.117404215684732,1
621,724,57,0.133495419128778,1
621,725,57,0.132139277648478,1
622,724,57,0.1436401883771,1
622,725,57,0.131056536118377,1
623,724,57,0.137572040268592,1
623,725,57,0.121856389312673,1
624,724,57,0.128308651691078,1
624,725,57,0.126880141367618,1
624,726,57,0.123818415231389,1
625,724,57,0.133225234263068,1
625,725,57,0.133251649774087,1
625,726,57,0.122557595706588,1
626,724,57,0.153830110130658,1
626,725,57,0.132528020226815,1
627,725,57,0.143552415392873,1
628,725,57,0.190536082009951,1
628,726,57,0.167436783430684,1
628,727,57,0.12578952111399,1
629,726,57,0.236752344467874,1
629,727,57,0.187153836681622,1
629,728,57,0.139126409961759,1
630,725,57,0.223316117753211,1
630,726,57,0.250329610932851,1
630,727,57,0.231125475538083,1
630,728,57,0.179203651130028,1
630,729,57,0.12945614243187,1
631,726,57,0.233102905597865,1
631,727,57,0.260709670192158,1
631,728,57,0.207598759151685,1
631,729,57,0.153321361285144,1
631,730,57,0.123909532845633,1
632,725,57,0.168726774253208,1
632,726,57,0.251789282844432,1
632,727,57,0.30966666851956,4
632,728,57,0.241233088773358,1
632,729,57,0.170768235134839,1
632,730,57,0.15577914616589,1
632,731,57,0.139745402052321,1
633,725,57,0.185064973913299,1
633,726,57,0.2583359721365,1
633,727,57,0.30814048086735,4
633,728,57,0.262885681770796,1
633,729,57,0.190637080414987,1
633,730,57,0.161214699903307,1
633,731,57,0.170053720882051,1
633,732,57,0.131096942546511,1
634,724,57,0.210388157032546,1
634,725,57,0.22994420874486,1
634,726,57,0.237833814096419,1
634,727,57,0.269903327944553,4
634,728,57,0.285305207852739,1
634,729,57,0.234981975270654,1
634,730,57,0.159868368552601,1
634,731,57,0.146617050415069,1
634,732,57,0.146911330749143,1
635,723,57,0.211088150409237,1
635,724,57,0.287184960583771,1
635,725,57,0.257086446626441,1
635,726,57,0.218168261081631,1
635,727,57,0.240221620837855,1
635,728,57,0.276023953769111,1
635,729,57,0.253813726154319,1
635,730,57,0.178842548856801,1
635,731,57,0.131114160324981,1
635,732,57,0.127407674314815,1
636,724,57,0.222977815493061,1
636,725,57,0.201771424404437,1
636,726,57,0.201658178058492,1
636,727,57,0.235140303460637,1
636,728,57,0.245030821943298,1
636,729,57,0.21391106525147,1
636,731,57,0.140086059685723,1
636,732,57,0.115296133070675,1
637,726,57,0.186209555768125,1
637,727,57,0.240143705090687,1
637,728,57,0.246424614065027,1
637,729,57,0.182579607611775,1
637,732,57,0.116326255562332,1
638,726,57,0.159365331487223,1
638,727,57,0.233598688113628,1
638,728,57,0.255316760487464,1
638,729,57,0.165113372593951,1
638,751,57,0.123882740474894,1
638,753,57,0.198423991492769,1
638,754,57,0.195308609953864,1
639,727,57,0.181014285432987,1
639,728,57,0.191319231839295,1
639,750,57,0.143083660785174,1
639,751,57,0.189295306711523,1
639,752,57,0.224840680197878,1
639,753,57,0.259473005020054,1
639,754,57,0.258734783935488,1
639,755,57,0.171621869508742,1
640,739,57,0.120466495333676,1
640,750,57,0.198044941275363,1
640,751,57,0.248330158133165,1
640,752,57,0.246304607797849,1
640,753,57,0.217167133234703,1
640,754,57,0.198865506208811,1
641,750,57,0.221538635328771,1
641,751,57,0.26254909893312,1
641,752,57,0.240922744793707,1
641,753,57,0.176615649439058,1
642,751,57,0.231873895388829,1
642,752,57,0.219826420297137,1
586,745,58,0.188207277368471,1
586,746,58,0.17062393319257,1
587,745,58,0.191686269653117,1
587,746,58,0.197555494713647,1
587,747,58,0.175249933366491,1
588,745,58,0.147487337277861,1
588,746,58,0.158091946046124,1
588,747,58,0.155723264935492,1
588,748,58,0.161545488522784,1
589,745,58,0.126051473950184,1
589,746,58,0.121546445746474,1
589,748,58,0.114087273079808,1
589,749,58,0.116485443463552,1
590,745,58,0.122832785740457,1
590,746,58,0.116721970045494,1
590,753,58,0.127388101163093,1
591,754,58,0.116650873103889,1
592,754,58,0.129512577174982,1
592,755,58,0.13924775879169,1
593,736,58,0.119315765954662,1
593,737,58,0.135365208630954,1
593,738,58,0.156706468391974,1
593,739,58,0.12864313824656,1
593,754,58,0.117346815238587,1
593,755,58,0.127019002397676,1
594,736,58,0.123610011806073,1
594,737,58,0.129584957795009,1
594,738,58,0.124182650151041,1
596,731,58,0.118744175750792,1
596,732,58,0.147913459629703,1
596,733,58,0.144547725467869,1
596,734,58,0.118850038001592,1
597,731,58,0.149367879058932,1
597,733,58,0.170551670341206,1
597,734,58,0.129978764425837,1
598,731,58,0.137210148945325,1
598,732,58,0.164888775977529,1
598,733,58,0.140916623178625,1
613,727,58,0.115939891910979,1
621,724,58,0.136271367828371,1
621,725,58,0.124388792418035,1
622,724,58,0.140000171000098,1
622,725,58,0.125072769256613,1
625,724,58,0.147617766071677,1
625,725,58,0.13100814497492,1
626,725,58,0.141098905514579,1
628,725,58,0.151076914336676,1
628,726,58,0.139907074872322,1
628,727,58,0.129520974080625,1
629,726,58,0.220304184207524,1
629,727,58,0.209934370821862,1
629,728,58,0.165412728757383,1
629,729,58,0.116244936300815,1
630,726,58,0.251863995283977,1
630,727,58,0.238483920667637,1
630,728,58,0.193394845633077,1
630,729,58,0.142874044342634,1
631,727,58,0.223951338365478,1
631,728,58,0.194504450195114,1
631,729,58,0.155537567308324,1
631,730,58,0.128224729742118,1
632,726,58,0.217171160922963,1
632,727,58,0.249512932365269,1
632,728,58,0.207435107818153,1
632,729,58,0.160623418779052,1
632,730,58,0.148986073054822,1
632,731,58,0.144555816174989,1
633,726,58,0.238343140008379,1
633,727,58,0.26437055617617,1
633,728,58,0.223387179364217,1
633,729,58,0.170345869603333,1
633,730,58,0.147428335177905,1
633,731,58,0.171148757460527,1
633,732,58,0.148550764747298,1
634,727,58,0.22705864097413,1
634,728,58,0.237060309520541,1
634,729,58,0.205948090023119,1
634,730,58,0.146649754772669,1
634,731,58,0.158328201760142,1
634,732,58,0.190973557260867,1
634,733,58,0.137210608243109,1
635,724,58,0.255152002128504,1
635,725,58,0.201601578439252,1
635,727,58,0.212663188502688,1
635,728,58,0.251616327786555,1
635,729,58,0.236786450272559,1
635,730,58,0.168451018929758,1
635,731,58,0.152539365588694,1
635,732,58,0.193354074122089,1
635,733,58,0.168846780520385,1
636,726,58,0.19094121798612,1
636,727,58,0.266540844197806,1
636,728,58,0.285226868138386,1
636,729,58,0.237884266191472,1
636,731,58,0.148333976193206,1
636,732,58,0.157429049798149,1
636,733,58,0.136689964762674,1
637,726,58,0.206865083937494,1
637,727,58,0.287623295545923,1
637,728,58,0.284948039052842,1
637,729,58,0.213058914762716,1
637,732,58,0.120864812504281,1
637,752,58,0.11838176624541,1
638,726,58,0.164483804877488,1
638,727,58,0.221177038427161,1
638,728,58,0.227443485409735,1
638,729,58,0.166619398251126,1
638,752,58,0.195211179939305,1
638,753,58,0.213828462311531,1
638,754,58,0.196258991284083,1
639,727,58,0.147886631928366,1
639,728,58,0.153328203644441,1
639,751,58,0.193143150447394,1
639,752,58,0.235301952726905,1
639,753,58,0.271033765783003,1
639,754,58,0.257743218903962,1
639,755,58,0.174625264826392,1
640,751,58,0.226867219789959,1
640,752,58,0.229595213090147,1
640,753,58,0.219570603208263,1
640,754,58,0.201251051791926,1
641,751,58,0.22988395829708,1
641,752,58,0.218105325508344,1
641,753,58,0.185424027011797,1
588,745,59,0.115779479215668,1
588,746,59,0.140274018471214,1
588,747,59,0.170209870351777,1
589,747,59,0.116127085200163,1
589,748,59,0.11664073322204,1
592,754,59,0.135456773766117,1
593,737,59,0.117357379087621,1
593,738,59,0.128232196275326,1
593,754,59,0.125096393650328,1
593,755,59,0.135934467015306,1
594,737,59,0.113893567183583,1
596,732,59,0.121466963676093,1
596,733,59,0.135451050209115,1
597,732,59,0.146861738365328,1
597,733,59,0.149912912429389,1
598,732,59,0.130908159380382,1
598,733,59,0.118950635993175,1
613,727,59,0.123705357315304,1
621,725,59,0.11604238597803,1
622,725,59,0.119439493711577,1
625,725,59,0.127893823353978,1
628,726,59,0.141573136365088,1
628,727,59,0.155850243107495,1
628,728,59,0.126365280328516,1
629,726,59,0.21352925924736,1
629,727,59,0.238764115869666,1
629,728,59,0.190375527992245,1
629,729,59,0.13457419185495,1
630,727,59,0.232300359269793,1
630,728,59,0.197797061794348,1
630,729,59,0.152246887115157,1
630,730,59,0.115952646257138,1
631,727,59,0.189461631393696,1
631,728,59,0.183659381371579,1
631,729,59,0.160784514532606,1
631,730,59,0.131065439429269,1
632,728,59,0.179227181308813,1
632,729,59,0.157170630021832,1
632,730,59,0.135913068449314,1
632,731,59,0.129512671389912,1
633,729,59,0.147410457894924,1
633,730,59,0.12549491102766,1
633,731,59,0.143485169486535,1
633,732,59,0.140342783593299,1
634,729,59,0.160370180823889,1
634,730,59,0.12432789424261,1
634,731,59,0.156385690108817,1
634,732,59,0.212890387806553,1
634,733,59,0.164903791482009,1
635,727,59,0.201453142816927,1
635,728,59,0.227555671837716,1
635,729,59,0.205675337800566,1
635,730,59,0.148747603289948,1
635,731,59,0.176489625193223,1
635,732,59,0.267431198840704,1
635,733,59,0.237297142301006,1
635,734,59,0.127379692480584,1
636,726,59,0.18626919381886,1
636,727,59,0.275857287557816,1
636,728,59,0.306832706976776,1
636,729,59,0.266432308598365,1
636,730,59,0.170685384880708,1
636,731,59,0.154344382326447,1
636,732,59,0.20587530898964,1
636,733,59,0.191199826192297,1
636,734,59,0.125908797215459,1
637,726,59,0.213916718147275,1
637,727,59,0.291887581049571,1
637,728,59,0.292635906685388,1
637,729,59,0.247288659188702,1
637,732,59,0.118009829255224,1
637,751,59,0.121687909463975,1
637,752,59,0.135546843239264,1
638,727,59,0.197840848183098,1
638,728,59,0.190187180570168,1
638,750,59,0.123511604311614,1
638,751,59,0.181501117530393,1
638,752,59,0.209337472132401,1
638,753,59,0.207212336616001,1
639,751,59,0.197561889552026,1
639,752,59,0.241808153152775,1
639,753,59,0.256787008024945,1
639,754,59,0.228552395136663,1
640,752,59,0.22110161937564,1
640,753,59,0.220435802464832,1
589,747,60,0.119387039549261,1
592,753,60,0.117030547495207,1
592,754,60,0.139074203113634,1
593,754,60,0.126924787467605,1
593,755,60,0.131605962259949,1
594,755,60,0.118690013942868,1
596,733,60,0.122224298614598,1
597,732,60,0.115808638736525,1
597,733,60,0.129232440857284,1
628,726,60,0.148611721807054,1
628,727,60,0.173490516654891,1
628,728,60,0.132827812134299,1
629,727,60,0.245104121158893,1
629,728,60,0.190909703092012,1
629,729,60,0.140834173337947,1
630,727,60,0.208881919391779,1
630,728,60,0.184131374617499,1
630,729,60,0.153764206787074,1
630,730,60,0.123264137020918,1
631,728,60,0.165609190440313,1
631,729,60,0.160979633652782,1
631,730,60,0.12894583904001,1
632,729,60,0.146530749539124,1
632,730,60,0.116365448973241,1
634,731,60,0.137520775569767,1
634,732,60,0.192703237385163,1
634,733,60,0.15923231178283,1
635,728,60,0.194193387826621,1
635,731,60,0.180634740587198,1
635,732,60,0.285133878002406,1
635,733,60,0.254589067921333,1
635,734,60,0.138409304798395,1
636,727,60,0.242425355159667,1
636,728,60,0.280716893650846,1
636,729,60,0.26509038179564,1
636,732,60,0.217436729257099,1
636,733,60,0.214303493988946,1
636,734,60,0.145429954073048,1
637,727,60,0.249678962625785,1
637,728,60,0.261467699965772,1
637,729,60,0.251416026845225,1
637,751,60,0.144783922297555,1
638,728,60,0.153586046354311,1
639,752,60,0.225823459687174,1
639,753,60,0.222251889456869,1
592,753,61,0.129230215029561,1
593,753,61,0.12376659701985,1
593,754,61,0.129630357614437,1
594,754,61,0.121702006372886,1
628,727,61,0.169010726275574,1
628,728,61,0.126105306005853,1
629,728,61,0.167713563341498,1
629,729,61,0.132727850093494,1
630,728,61,0.157016164643982,1
630,729,61,0.143935752389597,1
630,730,61,0.120852234811116,1
631,729,61,0.149907907261229,1
631,730,61,0.120810238506038,1
634,731,61,0.12267966292536,1
634,732,61,0.15413535472722,1
634,733,61,0.133250566302391,1
635,732,61,0.241631288175301,1
635,733,61,0.218863685034213,1
635,734,61,0.130181185203093,1
636,728,61,0.217314037864415,1
636,733,61,0.201184960018481,1
636,734,61,0.148354915461414,1
637,728,61,0.204314497350629,1
593,753,62,0.145728320979715,1
594,753,62,0.124725233933316,1
629,729,62,0.115705414503767,1
630,729,62,0.125617955726332,1
635,733,62,0.157171183534547,1
636,734,62,0.13193623269731,1
638,742,62,0.113907463885769,1
629,756,63,0.115363861828529,1
630,755,63,0.117563580238946,1
635,751,63,0.129985677446331,1
635,752,63,0.127819487774153,1
636,738,63,0.115300419849993,1
636,750,63,0.123865593357621,1
636,751,63,0.154281434976294,1
638,741,63,0.135227289750198,1
638,742,63,0.148658487742967,1
638,743,63,0.124530220804937,1
629,755,64,0.134136763711499,1
631,754,64,0.137103474090753,1
631,755,64,0.135811398762901,1
632,754,64,0.139775444838148,1
635,750,64,0.138934447041741,1
635,751,64,0.153981372200886,1
635,752,64,0.136257259142593,1
636,737,64,0.120308249581756,1
636,738,64,0.128495515228006,1
636,739,64,0.114053273266919,1
636,744,64,0.125704280156009,1
636,745,64,0.145136297912885,1
636,749,64,0.12525582886574,1
636,750,64,0.155976632436184,1
636,751,64,0.171561100878846,1
637,738,64,0.121305632385214,1
637,739,64,0.123861930752215,1
637,740,64,0.116337019618092,1
637,744,64,0.116612268536293,1
637,745,64,0.12047243087427,1
600,733,65,0.13316504269962,1
601,733,65,0.135950836859406,1
609,732,65,0.142461312287728,1
629,755,65,0.157752501429947,1
630,754,65,0.15774836774989,1
631,753,65,0.132392786471565,1
631,754,65,0.192584079052356,1
632,753,65,0.154077106346704,1
632,754,65,0.188762533058841,1
633,753,65,0.126116199607143,1
635,744,65,0.130996509431056,1
635,745,65,0.130205198233395,1
635,747,65,0.119470914390756,1
635,748,65,0.134700628291104,1
635,749,65,0.156895816847683,1
635,750,65,0.182233603281091,1
635,751,65,0.162838140917082,1
636,738,65,0.130121676697887,1
636,739,65,0.121899092229727,1
636,744,65,0.156063310171849,1
636,745,65,0.160149988755448,1
636,748,65,0.125557304865099,1
636,749,65,0.162367042712998,1
636,750,65,0.1909254487622,1
637,744,65,0.139832221110381,1
637,745,65,0.131454205561338,1
595,749,66,0.118986979402449,1
600,733,66,0.141436454055289,1
600,734,66,0.115335726895037,1
601,732,66,0.120492439770044,1
601,733,66,0.150463257166529,1
601,734,66,0.118683336459699,1
602,733,66,0.123682474864163,1
604,753,66,0.121230366432954,1
609,732,66,0.153232893465808,1
628,755,66,0.119083325945313,1
629,754,66,0.126516860374133,1
630,753,66,0.113866374399392,1
630,754,66,0.182358744261957,1
630,755,66,0.16952525756242,1
631,753,66,0.158509353516935,1
631,754,66,0.221317654210291,1
632,753,66,0.174484295737274,1
634,744,66,0.122087051015218,1
634,745,66,0.135175707075984,1
634,746,66,0.123513830139337,1
634,749,66,0.11961919691382,1
634,750,66,0.130150141383635,1
635,743,66,0.115113650527995,1
635,744,66,0.157345622477572,1
635,745,66,0.1503640017377,1
635,746,66,0.119334832701135,1
635,747,66,0.114777750748561,1
635,748,66,0.141787663760858,1
635,749,66,0.188015597093243,1
635,750,66,0.202263297000602,1
636,743,66,0.127569676887071,1
636,744,66,0.159102742700251,1
636,745,66,0.143781440111008,1
636,748,66,0.148982163135224,1
636,749,66,0.189888907878431,1
595,749,67,0.120395963681652,1
595,750,67,0.126508581237153,1
596,750,67,0.114728758984925,1
600,732,67,0.118691756919074,1
600,733,67,0.127717570773549,1
600,734,67,0.118014928638314,1
601,732,67,0.125604883404784,1
601,733,67,0.141307132286901,1
601,734,67,0.129358382665056,1
602,732,67,0.114942438446324,1
602,733,67,0.130332918347971,1
602,734,67,0.117612866424239,1
603,732,67,0.118357058379999,1
603,733,67,0.134286271028655,1
604,733,67,0.116637353261424,1
609,732,67,0.136706381714239,1
629,754,67,0.126825508485044,1
630,753,67,0.130617824296504,1
630,754,67,0.177854469777688,1
631,753,67,0.173102798663919,1
634,744,67,0.148189744912135,1
634,745,67,0.176730591653744,1
634,746,67,0.137140771426195,1
634,749,67,0.131327839786381,1
634,750,67,0.136784756759191,1
635,743,67,0.119389218269519,1
635,744,67,0.163540089253572,1
635,745,67,0.164768310412568,1
635,746,67,0.12016107408412,1
635,748,67,0.136399547240732,1
635,749,67,0.193569849865682,1
636,744,67,0.140570642401674,1
636,745,67,0.118181853940667,1
596,750,68,0.118819995215766,1
600,732,68,0.130230129859265,1
601,732,68,0.132591709519542,1
601,733,68,0.130339101202757,1
601,734,68,0.128578707011258,1
602,732,68,0.134503177351409,1
602,733,68,0.144331890839944,1
602,734,68,0.123802963982857,1
603,732,68,0.144893953559011,1
603,733,68,0.171493584104585,1
603,734,68,0.123220103317977,1
604,732,68,0.124332864080172,1
604,733,68,0.145896070662705,1
625,734,68,0.115617276436686,1
630,753,68,0.133783881690921,1
633,745,68,0.116736655797718,1
634,744,68,0.154075716676485,1
634,745,68,0.190408609209566,1
634,746,68,0.137810521810332,1
634,749,68,0.132244044650717,1
635,744,68,0.153144037009886,1
635,745,68,0.165834976520226,1
600,732,69,0.141205215286297,1
601,731,69,0.120775049229656,1
601,732,69,0.145394611697405,1
601,733,69,0.131605879821885,1
601,734,69,0.126729350372041,1
601,735,69,0.114498167943577,1
602,731,69,0.121405394219292,1
602,732,69,0.163902263221629,1
602,733,69,0.16454351358942,1
602,734,69,0.130072755595448,1
603,732,69,0.173761514124373,1
603,733,69,0.196510109403319,1
603,734,69,0.131915670288822,1
604,732,69,0.136520613425872,1
604,733,69,0.162366135894296,1
625,734,69,0.124094464976495,1
634,744,69,0.140078004309202,1
634,745,69,0.165962025353426,1
600,735,70,0.117045209693699,1
601,732,70,0.14779498435514,1
601,733,70,0.136024783802645,1
601,734,70,0.127007390407545,1
601,735,70,0.12094231606113,1
602,732,70,0.171589812878785,1
602,733,70,0.170134686837581,1
602,734,70,0.134408185148166,1
603,732,70,0.17622726016671,1
603,733,70,0.190638093225485,1
603,734,70,0.13517253909896,1
604,732,70,0.138591080729099,1
604,733,70,0.157591229023399,1
604,734,70,0.120027583305077,1
605,738,70,0.115427303807065,1
618,730,70,0.113828076030318,1
618,731,70,0.120178539176782,1
618,732,70,0.115373872164849,1
619,731,70,0.126390141293188,1
619,732,70,0.128398897817219,1
619,744,70,0.119006529000439,1
620,731,70,0.129310073959662,1
620,732,70,0.139792627286019,1
620,733,70,0.119087259418643,1
621,731,70,0.119357785813474,1
621,732,70,0.126435070037966,1
621,733,70,0.115431319718459,1
624,730,70,0.116001685128239,1
624,731,70,0.118752549102702,1
624,732,70,0.12528932227338,1
624,733,70,0.119184795424998,1
625,731,70,0.122172704163518,1
625,732,70,0.127534063643504,1
625,733,70,0.125318140265115,1
625,734,70,0.122496968399088,1
626,732,70,0.12076194157751,1
626,733,70,0.117233969306095,1
629,733,70,0.114184090697321,1
