x,y,z,signal,mito.p
965,297,25,0.125378331828564,1
965,298,25,0.164132606948784,1
966,297,25,0.132672439937747,1
966,298,25,0.169393250668526,1
966,300,25,0.158188021721064,1
966,301,25,0.1296448902674,1
967,297,25,0.118684608361255,1
967,298,25,0.131490690293008,1
967,299,25,0.13289466940405,1
967,300,25,0.11817772026061,1
969,290,25,0.152121475266367,1
969,291,25,0.127207467588415,1
969,292,25,0.116506983351939,1
970,291,25,0.121140249852342,1
972,290,25,0.131091124774579,1
973,290,25,0.134629354696506,1
975,290,25,0.118983057705985,1
976,289,25,0.12852852578413,1
977,287,25,0.14187712083696,1
977,288,25,0.124429081077506,1
978,286,25,0.139116105203783,1
978,287,25,0.11970765295629,1
979,285,25,0.145902489054816,1
979,286,25,0.118642941808431,1
980,284,25,0.140567038680599,1
981,284,25,0.121017629120855,1
982,283,25,0.141217628103334,1
964,297,26,0.123278304591028,1
965,297,26,0.139117871733721,1
966,296,26,0.117545702955965,1
966,297,26,0.144227971772076,1
967,296,26,0.115954247910949,1
967,297,26,0.128397555254466,1
967,298,26,0.144944264331669,1
967,300,26,0.136257777324709,1
967,301,26,0.121305326186691,1
968,294,26,0.11765866665712,1
968,295,26,0.117769981596998,1
969,289,26,0.158181367791627,1
969,290,26,0.130298871427617,1
969,291,26,0.115191224746041,1
969,292,26,0.114244541351828,1
969,293,26,0.113821422100882,1
969,294,26,0.116012837820586,1
970,290,26,0.147096993045713,1
970,291,26,0.117896924438401,1
971,290,26,0.13470045163811,1
971,291,26,0.114634791369046,1
972,290,26,0.128224694411519,1
973,290,26,0.135980279025053,1
974,290,26,0.149224778357022,1
974,307,26,0.124654313644706,1
975,290,26,0.130356801832744,1
976,289,26,0.138840879839315,1
977,287,26,0.167426066482389,1
977,288,26,0.147216222039717,1
978,287,26,0.137618535336581,1
978,288,26,0.115461044528897,1
979,286,26,0.128102580085281,1
980,285,26,0.114832442515467,1
981,284,26,0.128425831510353,1
982,284,26,0.121477021119878,1
983,283,26,0.141540691098545,1
963,298,27,0.139048729751916,1
964,297,27,0.1329249830578,1
965,296,27,0.121392545658204,1
966,296,27,0.132796556331248,1
966,297,27,0.162560795716688,1
967,294,27,0.120840234184399,1
967,295,27,0.133848607347879,1
967,296,27,0.135209129822427,1
967,297,27,0.14766582746288,1
967,298,27,0.165351583267768,1
968,293,27,0.131981773839133,1
968,294,27,0.160593034464104,1
968,295,27,0.157342112971427,1
968,296,27,0.129382643009549,1
968,297,27,0.116472959985318,1
968,298,27,0.115252358458791,1
969,288,27,0.126517001696528,1
969,289,27,0.127679142858946,1
969,292,27,0.117941476323458,1
969,293,27,0.137278372331562,1
969,294,27,0.154645728780277,1
969,295,27,0.14014969009412,1
970,287,27,0.124367452736374,1
970,288,27,0.150456709228889,1
970,289,27,0.155796599481686,1
970,290,27,0.126054818580202,1
970,291,27,0.117976583161776,1
970,292,27,0.127605231246306,1
970,293,27,0.126610168485502,1
970,294,27,0.121105025245362,1
971,286,27,0.127664362891792,1
971,289,27,0.143656887973455,1
971,290,27,0.122157829981433,1
971,291,27,0.124415007722327,1
971,292,27,0.133219016077684,1
972,285,27,0.126751785302264,1
972,289,27,0.143743259510597,1
972,290,27,0.119600483473335,1
973,284,27,0.139440569646079,1
973,290,27,0.12665814743864,1
974,290,27,0.144028848517373,1
974,308,27,0.149298148233814,1
975,290,27,0.132116100775681,1
975,307,27,0.133354685576985,1
976,289,27,0.149611177338973,1
977,288,27,0.165693124166139,1
977,289,27,0.122277989347872,1
977,304,27,0.114537832429137,1
978,287,27,0.143279580732255,1
978,288,27,0.124710783718416,1
979,286,27,0.120303173752399,1
981,284,27,0.126040827663086,1
982,284,27,0.124231877452002,1
983,283,27,0.152807666155802,1
983,284,27,0.113770004302796,1
984,282,27,0.134770488661751,1
984,285,27,0.127782496637234,1
984,286,27,0.131394685279266,1
985,285,27,0.11798424990171,1
985,286,27,0.119545768152697,1
964,297,28,0.13100908712422,1
965,296,28,0.12098707992978,1
965,306,28,0.147217128858419,1
966,295,28,0.11444042596831,1
966,296,28,0.142933682393368,1
966,305,28,0.124750471757709,1
966,306,28,0.126346943747751,1
966,307,28,0.118045996011505,1
967,294,28,0.126148150245303,1
967,295,28,0.14957448062371,1
967,296,28,0.149419897477197,1
967,297,28,0.157682040439121,1
967,302,28,0.115887284649401,1
968,293,28,0.142062359166345,1
968,294,28,0.183200154248684,1
968,295,28,0.180616097807911,1
968,296,28,0.139795218196596,1
968,297,28,0.119272862830882,1
968,298,28,0.117979727585067,1
968,299,28,0.115312879774495,1
969,292,28,0.1256862379969,1
969,293,28,0.162901253143363,1
969,295,28,0.164637021907515,1
969,296,28,0.121113316159208,1
970,288,28,0.118426647882722,1
970,289,28,0.124579471659631,1
970,290,28,0.118039660057458,1
970,291,28,0.125576018305584,1
970,292,28,0.147882356925914,1
970,293,28,0.157917318673239,1
970,294,28,0.154077718743749,1
970,295,28,0.130822824207471,1
971,288,28,0.125097218030966,1
971,289,28,0.125741801251909,1
971,290,28,0.122780861537122,1
971,291,28,0.136748578226044,1
971,292,28,0.155697391160322,1
971,293,28,0.136859657628597,1
971,294,28,0.113831491321533,1
972,286,28,0.135436022927769,1
972,288,28,0.157115561395206,1
972,289,28,0.137425288738141,1
972,290,28,0.125750610347871,1
972,291,28,0.124761612673189,1
972,292,28,0.125233134844459,1
973,285,28,0.124141784425123,1
973,289,28,0.14982974419987,1
973,290,28,0.129226069572638,1
974,282,28,0.131022783619679,1
974,283,28,0.123226804354878,1
974,284,28,0.140521497538776,1
974,289,28,0.164572508234149,1
974,290,28,0.139097309325234,1
974,308,28,0.127247308726969,1
975,283,28,0.142441468268082,1
975,289,28,0.167945814920988,1
975,290,28,0.129045765750216,1
975,307,28,0.133398648618729,1
975,308,28,0.167542339482962,1
976,289,28,0.155660435354002,1
976,306,28,0.128129454894084,1
977,289,28,0.128831626991032,1
978,288,28,0.122781579925964,1
981,284,28,0.116040124819708,1
984,284,28,0.119542235092819,1
984,285,28,0.161016271483713,1
984,286,28,0.155846227196101,1
985,285,28,0.153827695873075,1
985,286,28,0.146776992035729,1
964,297,29,0.126402401010964,1
965,296,29,0.118603642405725,1
965,307,29,0.169655050405459,1
966,295,29,0.12052364846563,1
966,296,29,0.149552304784545,1
966,305,29,0.143587639999853,1
966,306,29,0.158977472173856,1
966,307,29,0.139530050275913,1
966,308,29,0.121412377900984,1
967,294,29,0.12534532127244,1
967,295,29,0.156536940402179,1
967,296,29,0.156403661606728,1
967,297,29,0.158460043777909,1
967,302,29,0.119362790981634,1
968,293,29,0.146522717716336,1
968,295,29,0.187708209107022,1
968,296,29,0.146041090993816,1
968,297,29,0.120787191178769,1
968,298,29,0.118937445902965,1
968,300,29,0.120310875822932,1
968,309,29,0.117526824639352,1
969,292,29,0.13914321554991,1
969,296,29,0.134223253017304,1
969,309,29,0.116216730706125,1
970,290,29,0.118345976348849,1
970,291,29,0.131793650177515,1
970,295,29,0.166549055028962,1
970,296,29,0.115922721239974,1
971,289,29,0.118348755689286,1
971,290,29,0.126307491245784,1
971,291,29,0.131998285005628,1
971,292,29,0.145812819995122,1
971,293,29,0.149589790549847,1
971,294,29,0.1375342718585,1
972,287,29,0.12267044163908,1
972,288,29,0.13702714822053,1
972,289,29,0.142562240031566,1
972,290,29,0.143628175973516,1
972,291,29,0.131459575812352,1
972,292,29,0.116672142124353,1
973,286,29,0.122806346675706,1
973,287,29,0.14296943695933,1
973,288,29,0.147939663157129,1
973,289,29,0.153836328316043,1
973,290,29,0.148125231238769,1
973,291,29,0.119751239138314,1
974,285,29,0.126900986420896,1
974,287,29,0.138181316444491,1
974,288,29,0.14334894647452,1
974,289,29,0.157530637046498,1
974,290,29,0.141839905939582,1
974,308,29,0.130446612214834,1
974,309,29,0.141750036673162,1
975,288,29,0.159549239030721,1
975,289,29,0.158205392598795,1
975,290,29,0.124780914956988,1
975,307,29,0.146941291096906,1
975,308,29,0.173167689197005,1
976,289,29,0.154429917706085,1
976,306,29,0.113805676430694,1
977,289,29,0.127388831328801,1
978,288,29,0.12397064300465,1
983,283,29,0.12735200506801,1
984,282,29,0.119920555144517,1
984,284,29,0.130839288266501,1
984,285,29,0.168862655736102,1
984,286,29,0.14765675927586,1
985,284,29,0.134855505859274,1
985,285,29,0.178781862664969,1
985,286,29,0.153256400090861,1
964,297,30,0.117357155327162,1
966,295,30,0.122740808414976,1
966,296,30,0.150259175851131,1
966,303,30,0.135719880735204,1
966,304,30,0.132851801610868,1
966,307,30,0.159697321347059,1
966,308,30,0.127039317491972,1
967,294,30,0.118963355008734,1
967,295,30,0.151734581656033,1
967,296,30,0.154635883320085,1
967,297,30,0.155833602395471,1
967,302,30,0.132182628293177,1
967,303,30,0.115796437903081,1
967,306,30,0.12156474699664,1
967,307,30,0.116492768674365,1
967,308,30,0.115775345535611,1
967,309,30,0.117378118149102,1
968,296,30,0.148593055474033,1
968,297,30,0.123396143914813,1
968,298,30,0.125813875673413,1
968,309,30,0.124556035695776,1
968,310,30,0.12642860453839,1
969,291,30,0.126445292357878,1
969,309,30,0.119585350200193,1
969,310,30,0.127006542473174,1
970,290,30,0.138197450751265,1
970,296,30,0.121577489565932,1
971,289,30,0.132113874947958,1
971,295,30,0.115292128936147,1
972,288,30,0.120842059598669,1
973,288,30,0.134646784458569,1
973,291,30,0.157558783756856,1
973,309,30,0.123123544791521,1
974,288,30,0.142327491756429,1
974,289,30,0.164350914718624,1
974,290,30,0.155511622871956,1
974,291,30,0.123404458382392,1
974,308,30,0.137837172858676,1
974,309,30,0.153120330178107,1
975,289,30,0.158022121006076,1
975,290,30,0.12070402294925,1
975,307,30,0.14151580658014,1
975,308,30,0.179360601426659,1
975,309,30,0.172589127088309,1
977,289,30,0.120691127280696,1
978,288,30,0.121327549133322,1
980,284,30,0.114468337141344,1
983,283,30,0.125081071947326,1
984,282,30,0.131388149118492,1
984,283,30,0.127995752131448,1
984,284,30,0.145659332097171,1
984,285,30,0.153427565065066,1
984,286,30,0.117590360832819,1
985,281,30,0.125727680789265,1
985,283,30,0.120572852212859,1
985,284,30,0.161195880471026,1
985,285,30,0.17988387114827,1
985,286,30,0.13399611259777,1
986,284,30,0.116031727914065,1
986,285,30,0.118472919190253,1
965,297,31,0.156045421112002,1
965,303,31,0.14802588159501,1
966,295,31,0.122002234024422,1
966,296,31,0.145311832104472,1
966,303,31,0.143280475774091,1
966,304,31,0.143150800699715,1
966,308,31,0.134972532579287,1
967,294,31,0.117027791708502,1
967,295,31,0.144890891573784,1
967,296,31,0.15202098326658,1
967,297,31,0.153993938117184,1
967,302,31,0.146651792170532,1
967,303,31,0.137180117936365,1
967,304,31,0.119801231935583,1
967,305,31,0.119948713631742,1
967,307,31,0.12318449007441,1
967,308,31,0.122211332284847,1
967,309,31,0.121183753596302,1
968,296,31,0.156530086266016,1
968,297,31,0.132726955051659,1
968,298,31,0.133646928513197,1
968,301,31,0.118668709591805,1
968,302,31,0.115421921779185,1
968,308,31,0.116635327640428,1
968,309,31,0.129335040916131,1
968,310,31,0.120207840020034,1
969,309,31,0.122457668996382,1
969,310,31,0.118598731452496,1
970,289,31,0.116284671447572,1
970,296,31,0.119334455841415,1
972,309,31,0.114243610979393,1
973,292,31,0.114317840567423,1
973,309,31,0.143138434990144,1
973,310,31,0.16067391798157,1
974,291,31,0.135916271756936,1
974,308,31,0.13940675826305,1
974,309,31,0.168133102425102,1
974,310,31,0.173153498073163,1
975,290,31,0.122360191874358,1
975,307,31,0.119225496274789,1
983,283,31,0.119255668606144,1
984,282,31,0.148042710736894,1
984,283,31,0.144686350960601,1
984,284,31,0.137529490450799,1
984,285,31,0.116110008744088,1
985,282,31,0.132850671031707,1
985,283,31,0.148594927995769,1
985,284,31,0.167105688612684,1
985,285,31,0.149236567000147,1
986,282,31,0.117977631302873,1
986,283,31,0.123974093626464,1
986,284,31,0.130464242183623,1
986,285,31,0.114402845988079,1
964,298,32,0.144026139838133,1
964,302,32,0.155814323665405,1
964,303,32,0.143678298316313,1
964,304,32,0.158416869786205,1
965,297,32,0.143655663179364,1
965,302,32,0.153563764523349,1
965,303,32,0.135243223850246,1
966,296,32,0.133046143457871,1
966,302,32,0.156339642561745,1
966,303,32,0.143752822325999,1
966,304,32,0.149075424139128,1
966,308,32,0.138938451176269,1
967,295,32,0.134826393445882,1
967,296,32,0.151617295844961,1
967,297,32,0.162168896938194,1
967,302,32,0.165154320757933,1
967,303,32,0.158015054886321,1
967,304,32,0.13198483582436,1
967,305,32,0.121866776508713,1
967,307,32,0.122497251043878,1
967,308,32,0.122005425555178,1
967,309,32,0.119389548021774,1
968,296,32,0.169997992750915,1
968,297,32,0.154129737162015,1
968,298,32,0.154695862899941,1
968,301,32,0.132460680105547,1
968,302,32,0.147882262710984,1
968,303,32,0.144106634719012,1
968,308,32,0.115261308877147,1
968,309,32,0.128754170541648,1
968,310,32,0.117459649394212,1
969,297,32,0.121037261156908,1
969,309,32,0.127340746383866,1
969,310,32,0.121982519550305,1
970,296,32,0.115392585605334,1
970,309,32,0.116320426013534,1
970,310,32,0.13118782462343,1
971,309,32,0.114946807663706,1
971,310,32,0.147448367627411,1
972,309,32,0.132249356017399,1
972,310,32,0.168711016806153,1
973,292,32,0.115150853648506,1
973,309,32,0.164554171653384,1
973,310,32,0.187360367585203,1
974,291,32,0.123524005351785,1
974,308,32,0.130895652348415,1
974,309,32,0.185852292753298,1
975,308,32,0.140905541147476,1
983,283,32,0.115102662711775,1
984,283,32,0.154985774016634,1
984,284,32,0.116803760381661,1
985,283,32,0.181476492103046,1
985,284,32,0.161345352457582,1
986,283,32,0.169832150920258,1
986,284,32,0.158625061227928,1
987,282,32,0.119852166882152,1
987,283,32,0.123109671643068,1
987,284,32,0.113822917762897,1
964,298,33,0.139512443860856,1
964,302,33,0.136377336070968,1
964,303,33,0.127085058840521,1
964,304,33,0.147968045404813,1
965,297,33,0.129612715868781,1
965,298,33,0.163831460701681,1
965,302,33,0.136229241977764,1
965,303,33,0.131670193288524,1
966,296,33,0.127456006573941,1
966,297,33,0.161101983516344,1
966,301,33,0.170646627213851,1
966,302,33,0.153915233319977,1
966,303,33,0.155125612526591,1
966,304,33,0.18019204818453,1
966,307,33,0.168240001040133,1
966,308,33,0.143513587064818,1
967,296,33,0.166988956314327,1
967,301,33,0.176702574488915,1
967,302,33,0.192056428336497,1
967,303,33,0.186454290825849,1
967,304,33,0.156447094689491,1
967,305,33,0.13533723857359,1
967,306,33,0.121734145440907,1
967,307,33,0.119934699160894,1
967,308,33,0.118198341553429,1
968,300,33,0.143193951137688,1
968,301,33,0.148970174285373,1
968,302,33,0.188738390483011,1
968,303,33,0.189775673309353,1
968,304,33,0.132953082660694,1
968,309,33,0.118818146247763,1
969,297,33,0.138405960168377,1
969,298,33,0.117024894599402,1
969,303,33,0.115609197506432,1
969,309,33,0.125007336987679,1
969,310,33,0.124133811486665,1
970,296,33,0.117581481075659,1
970,309,33,0.119890194383302,1
970,310,33,0.145537182440334,1
970,311,33,0.128994418613328,1
971,309,33,0.120509504449253,1
971,310,33,0.168024778809253,1
971,311,33,0.149230713897616,1
972,309,33,0.143408784731981,1
972,310,33,0.199037424902457,1
972,311,33,0.172880545643883,1
973,309,33,0.180844922319319,1
973,310,33,0.219257173689652,1
974,308,33,0.117952629015805,1
976,283,33,0.122582845307847,1
976,284,33,0.144618940178136,1
977,284,33,0.141014253399911,1
978,284,33,0.120089564952197,1
978,285,33,0.133366886410429,1
985,284,33,0.143197813949821,1
986,284,33,0.18521289135351,1
987,283,33,0.161757142363187,1
987,284,33,0.142182565640248,1
964,298,34,0.134359546690517,1
964,302,34,0.12287795002256,1
964,303,34,0.113944984981669,1
964,304,34,0.137809026148317,1
965,297,34,0.118011654669494,1
965,302,34,0.123859975792416,1
965,303,34,0.126711225774868,1
965,304,34,0.175336799532016,1
965,307,34,0.174884579644544,1
966,296,34,0.123380127376701,1
966,301,34,0.162700245590058,1
966,302,34,0.152701379937816,1
966,303,34,0.158910991763825,1
966,304,34,0.197842685374234,1
966,305,34,0.209204746849665,1
966,306,34,0.170903033146037,1
966,307,34,0.153675220785623,1
966,308,34,0.142014886618456,1
967,300,34,0.161355928083483,1
967,301,34,0.173291687821844,1
967,302,34,0.211064314031929,1
967,303,34,0.203792028455924,1
967,304,34,0.165848708346284,1
967,305,34,0.136591251069693,1
968,299,34,0.157762052468483,1
968,300,34,0.132146155338373,1
968,301,34,0.14707754943952,1
968,302,34,0.20732805610386,1
968,303,34,0.213108401154736,1
968,304,34,0.14037520530611,1
969,298,34,0.125538167457428,1
969,303,34,0.120256089841096,1
969,309,34,0.113989477982395,1
969,310,34,0.117862677311321,1
970,310,34,0.142852704660973,1
970,311,34,0.126997756930945,1
971,310,34,0.159460971418111,1
971,311,34,0.143854456681812,1
972,309,34,0.129750140121155,1
972,310,34,0.191335483914732,1
972,311,34,0.161194384809011,1
973,309,34,0.164042101731586,1
973,310,34,0.211837017780901,1
977,285,34,0.129861725928957,1
978,285,34,0.126215254829245,1
978,286,34,0.127524653927363,1
981,283,34,0.131043734664754,1
985,284,34,0.125786612228024,1
987,284,34,0.157133921529704,1
988,283,34,0.115666821713037,1
963,299,35,0.152497557713475,1
963,301,35,0.157727746457071,1
963,302,35,0.118615489933182,1
964,298,35,0.132838399537066,1
964,302,35,0.115934698312959,1
964,304,35,0.12366256018332,1
965,297,35,0.116032540517837,1
965,302,35,0.122190993636818,1
965,303,35,0.122166474201267,1
965,304,35,0.161702474150014,1
965,305,35,0.170541448021293,1
965,306,35,0.142290265082185,1
966,302,35,0.15652535196578,1
966,303,35,0.160606224554314,1
966,304,35,0.19203601902727,1
966,305,35,0.192519895131246,1
966,306,35,0.145345290181514,1
966,307,35,0.136023429463025,1
967,301,35,0.174732705177271,1
967,302,35,0.220428995436135,1
967,303,35,0.213120861079238,1
967,304,35,0.163810733417065,1
967,305,35,0.131946301917962,1
968,300,35,0.129003863660067,1
968,301,35,0.138616012354969,1
968,302,35,0.198682682137009,1
968,303,35,0.208359144298551,1
968,304,35,0.134142828797622,1
970,310,35,0.142383761623414,1
970,311,35,0.137960182226749,1
971,294,35,0.120395681036862,1
971,310,35,0.154774108399365,1
971,311,35,0.162065036754657,1
972,310,35,0.175437880375115,1
972,311,35,0.167257998824009,1
973,309,35,0.137374247799775,1
973,310,35,0.186830255504295,1
974,309,35,0.142971957208709,1
977,286,35,0.128546732819366,1
980,283,35,0.120825501324709,1
981,279,35,0.123749355687647,1
981,282,35,0.139869176916701,1
981,283,35,0.125808328769405,1
982,282,35,0.139997874511178,1
987,284,35,0.150369407319313,1
988,282,35,0.117614621177312,1
988,283,35,0.118324248030602,1
963,301,36,0.14232525415184,1
964,298,36,0.13009695705561,1
964,301,36,0.145413054269967,1
964,305,36,0.119870362140522,1
964,306,36,0.115389971141025,1
965,302,36,0.12323299898653,1
965,303,36,0.11640927069259,1
965,304,36,0.137507185066104,1
965,305,36,0.141639334130329,1
965,306,36,0.117807596907828,1
965,307,36,0.12250036013657,1
966,302,36,0.158957392616885,1
966,303,36,0.157648535254614,1
966,304,36,0.166953083979703,1
966,305,36,0.162912959348425,1
966,306,36,0.12405746206271,1
966,307,36,0.121758923967515,1
966,308,36,0.143977312950624,1
967,301,36,0.172811497877008,1
967,302,36,0.212170679955745,1
967,303,36,0.207951947370786,1
967,304,36,0.153792318166834,1
967,305,36,0.121831987645785,1
967,308,36,0.117246676544788,1
968,300,36,0.13291324152214,1
968,301,36,0.127333444726786,1
968,302,36,0.170499734361005,1
968,303,36,0.17959675114888,1
968,304,36,0.119203720849076,1
969,299,36,0.114230091136928,1
970,310,36,0.142533810676417,1
970,311,36,0.146160060896762,1
971,310,36,0.157507825256554,1
971,311,36,0.184579884792099,1
972,310,36,0.164506239807711,1
972,311,36,0.182551296025289,1
973,309,36,0.119444781524528,1
973,310,36,0.159363164543832,1
974,290,36,0.119328579185152,1
974,309,36,0.118237900047192,1
980,283,36,0.118876229752152,1
981,282,36,0.123937196704475,1
981,283,36,0.119712045727405,1
982,282,36,0.124944401414392,1
987,284,36,0.130112808717594,1
988,283,36,0.123647980422891,1
964,298,37,0.121057470259409,1
964,301,37,0.136369280694447,1
964,302,37,0.115153103029962,1
965,302,37,0.130298812543286,1
965,303,37,0.115293330176505,1
965,308,37,0.13035508241027,1
965,309,37,0.15124670141753,1
966,302,37,0.158082948520303,1
966,303,37,0.15020963057478,1
966,304,37,0.134442550043909,1
966,305,37,0.123709067028176,1
966,308,37,0.131701390207244,1
966,309,37,0.13644551234974,1
967,292,37,0.137029468263183,1
967,301,37,0.162695805711479,1
967,302,37,0.181850454714228,1
967,303,37,0.181317810607075,1
967,304,37,0.13581924215583,1
967,308,37,0.114200625417549,1
968,292,37,0.150745371997759,1
968,293,37,0.137992533278362,1
968,302,37,0.129948980731068,1
968,303,37,0.135825495671813,1
970,309,37,0.117375962982577,1
970,310,37,0.160331800016751,1
971,309,37,0.137186088807558,1
972,309,37,0.133453528815495,1
973,289,37,0.159427466233605,1
973,309,37,0.115077389556784,1
973,310,37,0.151837582128332,1
974,289,37,0.14657945865797,1
974,290,37,0.117435683471375,1
976,289,37,0.114420899924053,1
977,287,37,0.113891835984243,1
977,288,37,0.115300961585841,1
980,283,37,0.115597821053626,1
988,283,37,0.129161497014941,1
944,310,38,0.154361282129529,1
945,309,38,0.17761068864613,1
946,308,38,0.163600857883467,1
949,309,38,0.137730085813785,1
950,309,38,0.144251596165792,1
954,306,38,0.139256520780186,1
957,307,38,0.155124646823558,1
958,308,38,0.14254324394629,1
958,309,38,0.151024778149749,1
959,308,38,0.12176659070745,1
959,309,38,0.13906121323015,1
960,309,38,0.124144269343903,1
961,309,38,0.117527543028194,1
963,300,38,0.121470119876251,1
964,300,38,0.153536453970495,1
964,301,38,0.127030814594533,1
964,302,38,0.118280661848578,1
964,309,38,0.147157267047226,1
965,301,38,0.138001436589254,1
965,302,38,0.132802550756174,1
965,303,38,0.11879262577858,1
965,309,38,0.132465096430394,1
965,310,38,0.117900822581133,1
966,302,38,0.155449641224836,1
966,303,38,0.145530245866108,1
966,304,38,0.115009731460127,1
966,309,38,0.122550859339088,1
967,292,38,0.143849192422595,1
967,302,38,0.151086241614753,1
967,303,38,0.152948164170269,1
967,304,38,0.119319817196655,1
968,292,38,0.13913081450974,1
968,293,38,0.125577407975803,1
968,294,38,0.126443643596602,1
970,309,38,0.128070252587401,1
971,295,38,0.13548361324432,1
973,289,38,0.137331544882721,1
973,290,38,0.157890373203239,1
973,309,38,0.129390486402477,1
974,289,38,0.128693178151294,1
974,290,38,0.114141458441465,1
976,287,38,0.119910073733546,1
976,288,38,0.132298536210896,1
988,283,38,0.125030867166464,1
938,301,39,0.116357405373586,1
943,310,39,0.145785803863924,1
944,310,39,0.166963341630214,1
944,311,39,0.139644168109961,1
945,304,39,0.14650517018561,1
945,309,39,0.186848356547735,1
946,308,39,0.157019120637413,1
947,308,39,0.13995527758592,1
948,308,39,0.138778085588423,1
949,303,39,0.142843342052297,1
949,309,39,0.129833744094726,1
950,309,39,0.134010551035804,1
951,304,39,0.126347450153,1
951,309,39,0.150151817938315,1
952,305,39,0.136115041705652,1
953,306,39,0.147522738537835,1
953,313,39,0.150813560053397,1
954,306,39,0.121181162685725,1
954,307,39,0.152941416025903,1
954,311,39,0.172262271942163,1
954,312,39,0.146678937847259,1
954,313,39,0.1425468005599,1
955,307,39,0.138787165552308,1
955,313,39,0.170104702936086,1
956,307,39,0.137611292563832,1
957,307,39,0.120323712607154,1
957,308,39,0.145891901652049,1
957,309,39,0.141219170872814,1
958,308,39,0.11603004382219,1
958,309,39,0.122121427687827,1
959,310,39,0.130957280689548,1
960,310,39,0.118773594362706,1
963,309,39,0.11474813192992,1
964,299,39,0.126800459090511,1
964,300,39,0.130973603426182,1
964,301,39,0.11826000522516,1
964,302,39,0.115630007229112,1
964,303,39,0.113930416998107,1
964,309,39,0.122258757725271,1
964,310,39,0.140163186382852,1
965,300,39,0.151555243536644,1
965,301,39,0.131779529714871,1
965,302,39,0.125334498332349,1
965,303,39,0.115093794731482,1
965,309,39,0.117915673209485,1
965,310,39,0.114095210687666,1
966,301,39,0.149309454025422,1
966,302,39,0.139125196944534,1
966,303,39,0.128537970830869,1
967,292,39,0.125018159927771,1
967,301,39,0.132509978067706,1
967,302,39,0.119923487584215,1
967,303,39,0.119842474521221,1
968,292,39,0.116932811282125,1
968,294,39,0.116685979942207,1
969,310,39,0.114799502620541,1
970,309,39,0.137830259838182,1
972,294,39,0.117268275317507,1
973,289,39,0.115364120919587,1
973,290,39,0.141532788821285,1
973,309,39,0.137209618986343,1
974,289,39,0.117071660535316,1
974,290,39,0.115976812386701,1
976,288,39,0.117892873196408,1
980,284,39,0.116218921203249,1
984,283,39,0.151437380659126,1
985,278,39,0.116755310353872,1
935,298,40,0.119744985622331,1
936,299,40,0.13342307383935,1
942,310,40,0.153138972957394,1
943,310,40,0.161011278092419,1
943,311,40,0.132577624387497,1
944,304,40,0.117574992022351,1
944,311,40,0.153108847733504,1
944,312,40,0.144424033041553,1
945,304,40,0.12407257178212,1
945,312,40,0.159543397705056,1
946,304,40,0.13544071012054,1
946,308,40,0.150184628287712,1
946,313,40,0.147533161064474,1
947,308,40,0.126925070112396,1
947,309,40,0.128716166594231,1
948,303,40,0.113780415052569,1
948,308,40,0.130571870964362,1
948,309,40,0.126233909385399,1
949,303,40,0.120046332076161,1
949,308,40,0.138125399883494,1
949,309,40,0.125219838762453,1
950,304,40,0.143789613256191,1
950,308,40,0.147730529566105,1
950,309,40,0.129717058903834,1
951,304,40,0.116363340914181,1
951,305,40,0.147728079977924,1
951,308,40,0.156156017663038,1
951,309,40,0.137275298569469,1
952,305,40,0.117579596777058,1
952,306,40,0.151554336717942,1
952,308,40,0.154872563001288,1
952,309,40,0.139639056950005,1
952,310,40,0.149274806484889,1
953,306,40,0.123472022264119,1
953,307,40,0.148645179884095,1
953,308,40,0.154337186661163,1
953,309,40,0.145899215085996,1
953,310,40,0.145022085863907,1
953,311,40,0.141358408762591,1
953,314,40,0.125091070506779,1
954,307,40,0.128967178721671,1
954,308,40,0.150320038695956,1
954,309,40,0.151115801549063,1
954,310,40,0.153033475789448,1
954,311,40,0.145490192743962,1
954,312,40,0.130335685911542,1
954,313,40,0.134280158835066,1
954,314,40,0.124149086082203,1
955,308,40,0.131874757455439,1
955,309,40,0.137949323956059,1
955,310,40,0.150114108412555,1
955,311,40,0.160023222567038,1
955,312,40,0.154445686930006,1
955,313,40,0.147288461337349,1
955,314,40,0.13030493651374,1
956,308,40,0.117006640456701,1
956,309,40,0.121536482517619,1
956,310,40,0.136356856100544,1
956,313,40,0.167234951496741,1
956,314,40,0.133772846767236,1
957,310,40,0.126246251541238,1
957,314,40,0.136797204906827,1
958,313,40,0.161633131961482,1
958,314,40,0.135967218480372,1
959,311,40,0.128776687909935,1
959,313,40,0.146398153801916,1
959,314,40,0.126940980658711,1
960,311,40,0.129714833076111,1
960,314,40,0.125117733331989,1
963,310,40,0.123804942496389,1
964,310,40,0.119138100150282,1
964,311,40,0.136954685162439,1
965,300,40,0.130218282331808,1
965,301,40,0.129428172374505,1
965,302,40,0.116117981682545,1
966,301,40,0.133458934397108,1
966,302,40,0.118178815509172,1
969,292,40,0.116711830163645,1
969,310,40,0.12045212755684,1
970,291,40,0.127684183357705,1
970,309,40,0.128571099155655,1
972,290,40,0.115655480590829,1
973,290,40,0.120989152658241,1
973,291,40,0.132682132298678,1
973,309,40,0.128065883370019,1
979,287,40,0.117618955064095,1
980,285,40,0.115685228954999,1
984,283,40,0.144578415981339,1
935,298,41,0.116768535774681,1
936,299,41,0.126681465633832,1
937,301,41,0.120968755125881,1
938,302,41,0.129689830789043,1
939,308,41,0.138173202183638,1
940,309,41,0.154563596914989,1
941,310,41,0.156713039883347,1
942,310,41,0.173035093459797,1
942,311,41,0.149671463117352,1
943,311,41,0.159950747732082,1
944,312,41,0.165346307231684,1
945,305,41,0.152187213733823,1
946,305,41,0.155758171567084,1
946,307,41,0.176825678071918,1
946,308,41,0.137249707439088,1
946,309,41,0.136365406105448,1
947,304,41,0.123380468905823,1
947,307,41,0.152274150560546,1
947,308,41,0.11888762975869,1
947,309,41,0.114836729294785,1
948,304,41,0.138803641388204,1
948,307,41,0.163186394629221,1
948,308,41,0.129023578134184,1
948,309,41,0.119538760917273,1
949,304,41,0.150012768478398,1
949,307,41,0.175824691547385,1
949,308,41,0.143650646234338,1
949,309,41,0.128694980011832,1
950,304,41,0.138584662336988,1
950,305,41,0.156431455011099,1
950,307,41,0.16682399774864,1
950,308,41,0.148045855160185,1
950,309,41,0.135441946691497,1
951,305,41,0.128335031871498,1
951,306,41,0.139110499415443,1
951,307,41,0.144995505476761,1
951,308,41,0.135554910392651,1
951,309,41,0.127156132228393,1
951,310,41,0.136571242173919,1
952,306,41,0.121409433684419,1
952,307,41,0.129485737696778,1
952,308,41,0.122688719335513,1
952,309,41,0.117018028686373,1
952,310,41,0.124663876460108,1
952,311,41,0.147502823856992,1
952,314,41,0.142334310561993,1
953,307,41,0.11921671073256,1
953,308,41,0.12091382782165,1
953,309,41,0.117206988505496,1
953,310,41,0.122193772977255,1
953,311,41,0.123384425932886,1
953,312,41,0.127057383204813,1
953,313,41,0.144443076234293,1
953,314,41,0.124858618720563,1
954,308,41,0.11653103171284,1
954,309,41,0.115994136156967,1
954,310,41,0.119624849809625,1
954,311,41,0.11892266593581,1
954,312,41,0.117406853702774,1
954,313,41,0.128690469472054,1
954,314,41,0.122898500654181,1
955,311,41,0.118344186265178,1
955,312,41,0.123928187401787,1
955,313,41,0.134246912741618,1
955,314,41,0.127828956374625,1
955,315,41,0.117757215473973,1
956,311,41,0.118609259970931,1
956,312,41,0.135474003321453,1
956,313,41,0.146784988527919,1
956,314,41,0.133707414498302,1
956,315,41,0.126614255058093,1
957,311,41,0.119015314542668,1
957,312,41,0.149193463669639,1
957,313,41,0.163789876586921,1
957,314,41,0.139243813541493,1
957,315,41,0.131617244497825,1
958,312,41,0.144806686980034,1
958,313,41,0.163305258540371,1
958,314,41,0.138634631580524,1
958,315,41,0.13438179319088,1
959,312,41,0.128033025913157,1
959,313,41,0.143427663048594,1
959,314,41,0.127801504499375,1
960,312,41,0.13430123942567,1
960,313,41,0.148806063654056,1
960,314,41,0.124712491364024,1
961,311,41,0.118039141875343,1
961,314,41,0.144852840518902,1
963,311,41,0.164848852400912,1
964,311,41,0.127354855069644,1
964,312,41,0.128510212757097,1
964,313,41,0.129568823488234,1
965,301,41,0.124817835432709,1
965,310,41,0.116520821169793,1
966,300,41,0.128441035444693,1
966,301,41,0.121451630196224,1
966,310,41,0.119005893049661,1
967,295,41,0.120765427529923,1
967,310,41,0.115926395622247,1
969,310,41,0.130485346327959,1
969,311,41,0.144742302852197,1
970,309,41,0.119685983522374,1
972,291,41,0.166223118478384,1
973,291,41,0.132054260450956,1
973,292,41,0.126915577958191,1
974,290,41,0.119263205800549,1
978,287,41,0.133584051824241,1
978,288,41,0.117467469233408,1
979,285,41,0.117290180288748,1
979,286,41,0.128241040701886,1
979,287,41,0.134215433178108,1
980,285,41,0.127815942937409,1
980,286,41,0.119663925451871,1
984,283,41,0.136595632063941,1
939,308,42,0.136638970931773,1
940,309,42,0.158830496882946,1
941,310,42,0.162134131628998,1
942,311,42,0.156477855864159,1
943,312,42,0.166204334376701,1
945,306,42,0.18211439784082,1
945,307,42,0.190857661120014,1
945,308,42,0.172123493350169,1
946,306,42,0.162282037292342,1
946,307,42,0.153214168248457,1
946,308,42,0.125699039450523,1
946,309,42,0.126668781948872,1
947,306,42,0.153412514229988,1
947,307,42,0.139032642552607,1
948,304,42,0.12078542464883,1
948,305,42,0.143658489627266,1
948,306,42,0.162226474037333,1
948,307,42,0.157048068174677,1
948,308,42,0.127220716562956,1
949,305,42,0.146440562297314,1
949,306,42,0.158104535516155,1
949,307,42,0.171085233043927,1
949,308,42,0.153065897502259,1
949,309,42,0.134736995254111,1
949,314,42,0.119267339480606,1
950,304,42,0.127549267577844,1
950,305,42,0.129295211554444,1
950,306,42,0.131803318984714,1
950,307,42,0.152256850344012,1
950,308,42,0.158061655946107,1
950,309,42,0.148505258936074,1
951,307,42,0.115694049827827,1
951,308,42,0.125166336459039,1
951,309,42,0.124479980693477,1
951,310,42,0.129529571192994,1
952,311,42,0.128047346582528,1
952,314,42,0.128450233177241,1
953,312,42,0.124155398482518,1
953,313,42,0.138747925033934,1
953,314,42,0.121214974068754,1
954,313,42,0.127303354833494,1
954,314,42,0.121041300622035,1
955,313,42,0.12852956214836,1
955,314,42,0.127199635972353,1
955,315,42,0.117060130983249,1
956,313,42,0.139902846977335,1
956,314,42,0.140880739067135,1
956,315,42,0.130026519618516,1
957,312,42,0.119781117048013,1
957,313,42,0.162123791540423,1
957,314,42,0.154494926007834,1
957,315,42,0.137231995032235,1
958,312,42,0.125454151293538,1
958,313,42,0.173668170682405,1
958,314,42,0.157129163675735,1
958,315,42,0.137176785083214,1
959,313,42,0.147924023478737,1
959,314,42,0.139447282459846,1
959,315,42,0.127500075607481,1
960,313,42,0.127176223562231,1
960,314,42,0.126636654657718,1
961,312,42,0.129513366225022,1
961,313,42,0.160899845383878,1
961,314,42,0.146226564860526,1
962,311,42,0.116171366217296,1
962,314,42,0.173665167581509,1
963,311,42,0.129862185226741,1
963,312,42,0.190813674524537,1
963,313,42,0.219948805491298,1
964,312,42,0.129536672643348,1
964,313,42,0.136677999466555,1
965,301,42,0.118849166513489,1
966,300,42,0.115318261802375,1
966,301,42,0.119341922374623,1
966,310,42,0.127455935912743,1
967,295,42,0.123949845058837,1
967,310,42,0.128572559487071,1
969,293,42,0.120211608617237,1
969,310,42,0.127763712535551,1
970,292,42,0.126015648723025,1
972,291,42,0.134502635615561,1
972,292,42,0.16330790833528,1
973,291,42,0.125199370568895,1
973,292,42,0.123090946425716,1
974,290,42,0.120098762684745,1
975,290,42,0.121481154799935,1
977,287,42,0.117096003317873,1
977,288,42,0.117710249331333,1
978,286,42,0.124698382678246,1
978,287,42,0.16101797912932,1
978,288,42,0.132445652824201,1
979,285,42,0.128123166047502,1
979,286,42,0.14766419047847,1
979,287,42,0.154561583070858,1
980,285,42,0.140071939223079,1
980,286,42,0.134002872519003,1
981,285,42,0.114865877038776,1
984,282,42,0.127333915801436,1
984,283,42,0.126680005302416,1
985,283,42,0.13187897357356,1
940,308,43,0.159298780415995,1
941,309,43,0.179998306957707,1
945,307,43,0.155748761850943,1
945,308,43,0.153138219237954,1
946,307,43,0.134671351001585,1
946,308,43,0.119746728598537,1
946,309,43,0.126180312867055,1
947,307,43,0.134403462624796,1
948,306,43,0.140977380031654,1
948,307,43,0.155582790474758,1
948,308,43,0.132831545400903,1
948,310,43,0.130572059394223,1
948,313,43,0.146099574911657,1
949,306,43,0.135695243530991,1
949,307,43,0.170092243011584,1
949,308,43,0.170100404379901,1
949,309,43,0.144929696348107,1
949,310,43,0.153716934445911,1
950,305,43,0.114018343081595,1
950,306,43,0.11426622256261,1
950,307,43,0.148607823664322,1
950,308,43,0.174465476304992,1
950,309,43,0.16449752492668,1
950,310,43,0.160441195327429,1
950,314,43,0.124786532522193,1
951,308,43,0.12234416355938,1
951,309,43,0.12415051108302,1
951,310,43,0.12490527866468,1
951,311,43,0.156732719026865,1
951,314,43,0.125718636155978,1
952,311,43,0.117720365659449,1
952,312,43,0.149598858736866,1
952,313,43,0.152964486906904,1
953,312,43,0.131314107960323,1
953,313,43,0.142877106327861,1
953,314,43,0.11517835263122,1
954,312,43,0.118313342652446,1
954,313,43,0.139185258962454,1
954,314,43,0.120947815857673,1
955,313,43,0.130219106712446,1
955,314,43,0.126530074018076,1
956,313,43,0.135091290498641,1
956,314,43,0.146002698409812,1
956,315,43,0.131911195079644,1
957,313,43,0.159906396053751,1
957,314,43,0.171612448015735,1
957,315,43,0.143644545817616,1
958,312,43,0.118007780080495,1
958,313,43,0.182096532334705,1
958,314,43,0.185239295087662,1
958,315,43,0.143158644092644,1
959,313,43,0.157447480593844,1
959,314,43,0.161850556466352,1
959,315,43,0.129317363839876,1
960,313,43,0.124830059819886,1
960,314,43,0.136092712767225,1
961,313,43,0.145857018574191,1
961,314,43,0.150165314227048,1
962,312,43,0.154048029263911,1
962,313,43,0.207181622548798,1
962,314,43,0.181647256663798,1
963,312,43,0.180276417654408,1
963,313,43,0.21958899867336,1
963,314,43,0.172570095672435,1
964,312,43,0.149953413072453,1
964,313,43,0.151319717988334,1
966,296,43,0.153379904087317,1
966,299,43,0.134432174624735,1
966,300,43,0.116340694000365,1
966,301,43,0.12450424103797,1
966,310,43,0.120406303770227,1
966,311,43,0.11612130275883,1
967,295,43,0.131654176750412,1
967,300,43,0.143174978606145,1
967,310,43,0.127374404667634,1
967,311,43,0.125507465167092,1
968,294,43,0.12049072034757,1
968,300,43,0.128059865391361,1
968,311,43,0.124582474760527,1
969,293,43,0.117081152689521,1
969,299,43,0.119781305477873,1
969,310,43,0.118972105220364,1
971,292,43,0.12585871020326,1
972,292,43,0.129722876675766,1
972,293,43,0.144672312936021,1
973,291,43,0.117732743145887,1
973,292,43,0.116304998318735,1
974,290,43,0.118472930967119,1
975,290,43,0.127774123285324,1
977,287,43,0.126061920030556,1
977,288,43,0.127781201181945,1
978,286,43,0.144435774577213,1
978,287,43,0.17993256849025,1
978,288,43,0.14044074356684,1
979,285,43,0.144125972333409,1
979,286,43,0.171327235868679,1
979,287,43,0.166642386694063,1
980,285,43,0.148062260334883,1
980,286,43,0.14691710141361,1
981,285,43,0.117206211232323,1
983,284,43,0.115238402872274,1
984,282,43,0.116655666288457,1
984,283,43,0.119661793839078,1
985,282,43,0.165542721807148,1
985,283,43,0.115923545620612,1
987,282,43,0.118432783630043,1
945,308,44,0.135273266636072,1
946,308,44,0.115103263331954,1
946,309,44,0.124059994088955,1
947,310,44,0.121466033303659,1
947,313,44,0.156628222892551,1
948,307,44,0.142950923725571,1
948,308,44,0.136149241725268,1
948,310,44,0.115724846333094,1
948,311,44,0.159743863522513,1
948,312,44,0.188439870477083,1
948,313,44,0.133568553468245,1
949,307,44,0.151656465702138,1
949,308,44,0.174593655717353,1
949,309,44,0.151428936646018,1
949,310,44,0.143695822293306,1
949,311,44,0.178514833999417,1
949,313,44,0.139668357793256,1
950,307,44,0.127760438566731,1
950,308,44,0.167519610131082,1
950,309,44,0.163153348742499,1
950,310,44,0.152142897386092,1
950,311,44,0.17989435255924,1
950,313,44,0.155841021821214,1
951,310,44,0.115232149356291,1
951,311,44,0.141117454078936,1
951,312,44,0.173728291584656,1
951,313,44,0.149285641201847,1
952,312,44,0.137912203273611,1
952,313,44,0.133180305518291,1
953,312,44,0.131635145334538,1
953,313,44,0.144678872650527,1
954,312,44,0.119133306965715,1
954,313,44,0.143540897617672,1
955,313,44,0.125304667530115,1
955,314,44,0.116921069746465,1
956,313,44,0.123126206363295,1
956,314,44,0.137377262677537,1
956,315,44,0.128747987686862,1
957,313,44,0.147032679579074,1
957,314,44,0.171091521890509,1
957,315,44,0.142789486442896,1
958,313,44,0.173639623558594,1
958,314,44,0.194032103643207,1
958,315,44,0.143011562809938,1
959,313,44,0.157814812829322,1
959,314,44,0.17142500741236,1
959,315,44,0.126624135848885,1
960,313,44,0.12837780544975,1
960,314,44,0.139371710309064,1
961,313,44,0.141181025603001,1
961,314,44,0.14532008768772,1
962,312,44,0.130001493777716,1
962,313,44,0.191772005239481,1
962,314,44,0.173078738526153,1
963,312,44,0.168164864633402,1
963,313,44,0.209488192466781,1
963,314,44,0.16250856531483,1
964,312,44,0.176365744337047,1
964,313,44,0.167664595131594,1
965,311,44,0.117061037801951,1
965,312,44,0.146364471964416,1
965,313,44,0.117118179157038,1
966,299,44,0.125217718926526,1
966,300,44,0.114958184116512,1
966,301,44,0.119606018600477,1
966,311,44,0.118944688675714,1
966,312,44,0.11406236500767,1
967,300,44,0.14597868537951,1
967,311,44,0.124729461828303,1
968,299,44,0.164838582973534,1
968,300,44,0.116045165318467,1
968,311,44,0.135210908129232,1
968,312,44,0.141977977919601,1
969,298,44,0.127682770133754,1
971,296,44,0.116369688645094,1
972,293,44,0.124655032033547,1
972,295,44,0.114750616848701,1
975,290,44,0.117008724962029,1
977,287,44,0.122324449085263,1
977,288,44,0.126342056348254,1
978,285,44,0.118716818090473,1
978,286,44,0.155993096495214,1
978,287,44,0.170925738944184,1
978,288,44,0.130857942822655,1
979,285,44,0.153878383505453,1
979,286,44,0.181383313537206,1
979,287,44,0.156243790647265,1
980,285,44,0.140333927389872,1
980,286,44,0.143594623681544,1
985,280,44,0.128076117466798,1
985,281,44,0.149676680269104,1
985,282,44,0.14323574723604,1
986,282,44,0.140232457910187,1
945,308,45,0.124139040415284,1
946,308,45,0.115253689244678,1
946,309,45,0.126295054875015,1
947,307,45,0.118956453765107,1
947,308,45,0.117759464855429,1
947,310,45,0.117209661854137,1
947,313,45,0.140256953792005,1
948,307,45,0.127063990026784,1
948,308,45,0.138524270566813,1
948,309,45,0.118078523716112,1
948,311,45,0.133567505327148,1
948,312,45,0.149624096561259,1
948,313,45,0.119674053556854,1
949,307,45,0.127145427056964,1
949,308,45,0.163936086381524,1
949,309,45,0.151561685482487,1
949,310,45,0.13165500113105,1
949,311,45,0.146929408238851,1
949,312,45,0.154788629275462,1
949,313,45,0.118907509108935,1
950,308,45,0.139847754796977,1
950,309,45,0.144017283634706,1
950,310,45,0.131669274692956,1
950,311,45,0.149914537636933,1
950,312,45,0.167802820210874,1
950,313,45,0.127637864942709,1
951,311,45,0.126580102145943,1
951,312,45,0.157180310605897,1
951,313,45,0.130405628720253,1
952,312,45,0.1421926348609,1
952,313,45,0.136758341248173,1
953,312,45,0.135975085427032,1
953,313,45,0.15369147286106,1
954,312,45,0.116606132788972,1
954,313,45,0.14406830101934,1
955,313,45,0.118295194501541,1
956,314,45,0.121610570783253,1
957,313,45,0.129667772718541,1
957,314,45,0.151720437639656,1
957,315,45,0.133955965260694,1
958,313,45,0.153111532859011,1
958,314,45,0.17557479822224,1
958,315,45,0.136688351331997,1
959,313,45,0.147344342567747,1
959,314,45,0.158934251074686,1
959,315,45,0.117852737636198,1
960,313,45,0.128719994075765,1
960,314,45,0.130539449251552,1
961,313,45,0.134861076317014,1
961,314,45,0.129451879206284,1
962,313,45,0.17265532485355,1
962,314,45,0.150499730121333,1
963,312,45,0.156049554792059,1
963,313,45,0.198466623748626,1
963,314,45,0.145892419834165,1
964,311,45,0.116570872851393,1
964,312,45,0.202905889931147,1
964,313,45,0.190273092809526,1
964,314,45,0.117324003448643,1
965,311,45,0.134319411130307,1
965,312,45,0.19908507410334,1
965,313,45,0.149455840473019,1
966,296,45,0.129420505634571,1
966,297,45,0.157474331848914,1
966,298,45,0.143919276553701,1
966,299,45,0.118841170021299,1
966,311,45,0.129195390836034,1
966,312,45,0.159400179234483,1
966,313,45,0.11562437788704,1
967,299,45,0.163436817913348,1
967,300,45,0.137229580774652,1
967,311,45,0.129272458648832,1
967,312,45,0.147162719736304,1
968,298,45,0.159870217520604,1
968,299,45,0.127017600950591,1
968,311,45,0.14874570721448,1
968,312,45,0.174820937459281,1
969,312,45,0.213043180869395,1
970,293,45,0.122650668280631,1
971,293,45,0.131881835352061,1
971,295,45,0.151247796666092,1
972,294,45,0.129146410849264,1
977,287,45,0.11487980907156,1
977,288,45,0.119233410328915,1
978,285,45,0.139164237256182,1
978,286,45,0.166089191955289,1
978,287,45,0.150175630761891,1
979,285,45,0.164487714797086,1
979,286,45,0.182867787529128,1
979,287,45,0.134802297977516,1
980,285,45,0.128454213758037,1
980,286,45,0.129033788677231,1
985,279,45,0.1293070590819,1
985,280,45,0.128745549875547,1
985,281,45,0.133277064251473,1
985,282,45,0.122916095292372,1
986,280,45,0.167750224726162,1
986,281,45,0.149675443698147,1
986,282,45,0.115190035282549,1
944,307,46,0.126198437464228,1
945,308,46,0.116431293432494,1
946,309,46,0.124016031047211,1
947,308,46,0.119338177331153,1
947,310,46,0.11542697405481,1
947,311,46,0.139680464411771,1
947,312,46,0.145770293731061,1
947,313,46,0.123225332246596,1
948,308,46,0.138211535883311,1
948,309,46,0.128125179891632,1
948,311,46,0.118427460486494,1
948,312,46,0.12086349349526,1
949,308,46,0.144819488433657,1
949,309,46,0.146098326563834,1
949,310,46,0.122488441947916,1
949,311,46,0.124571404506244,1
949,312,46,0.124290396700442,1
950,309,46,0.118560833496875,1
950,311,46,0.123688563504019,1
950,312,46,0.135410396466789,1
951,312,46,0.14305537275242,1
951,313,46,0.121053513232346,1
952,312,46,0.148718220008632,1
952,313,46,0.141811087947847,1
953,312,46,0.139625666653068,1
953,313,46,0.153736554705098,1
954,313,46,0.134701205357551,1
957,313,46,0.116311075181724,1
957,314,46,0.128328083520405,1
957,315,46,0.123919802273011,1
958,313,46,0.130871191797196,1
958,314,46,0.143714618171855,1
958,315,46,0.126014765458056,1
959,313,46,0.131131578310178,1
959,314,46,0.135065616930197,1
960,313,46,0.120291467547338,1
960,314,46,0.115676737834426,1
961,313,46,0.119493255106049,1
962,313,46,0.144388207814394,1
962,314,46,0.123875956999929,1
963,312,46,0.137824088760262,1
963,313,46,0.179093796521566,1
963,314,46,0.127451578472228,1
964,312,46,0.209224955952165,1
964,313,46,0.20249165043736,1
964,314,46,0.115725446953273,1
965,311,46,0.143580043921116,1
965,312,46,0.240392173415015,1
965,313,46,0.180794988406382,1
966,296,46,0.12743803507603,1
966,297,46,0.130459931850572,1
966,298,46,0.12174156486665,1
966,311,46,0.14616425346115,1
966,312,46,0.213401079835,1
966,313,46,0.144258650508681,1
967,297,46,0.169550365841284,1
967,298,46,0.154764015624981,1
967,299,46,0.135622356505715,1
967,311,46,0.1457595296753,1
967,312,46,0.19070031040993,1
967,313,46,0.129998855759674,1
968,298,46,0.114090464610564,1
968,311,46,0.159685038075551,1
968,312,46,0.191574978266971,1
969,294,46,0.141504983640048,1
969,311,46,0.17788713880469,1
969,312,46,0.181300439729343,1
970,294,46,0.137721029403632,1
970,295,46,0.134771913662569,1
970,310,46,0.132174690685318,1
971,294,46,0.130062439060606,1
978,285,46,0.14418889612983,1
978,286,46,0.158257587670054,1
978,287,46,0.125068034956377,1
979,285,46,0.158574891777665,1
979,286,46,0.162665374289066,1
985,279,46,0.146540029709736,1
985,280,46,0.136365158791256,1
985,281,46,0.124806423649304,1
944,307,47,0.113842502691485,1
944,308,47,0.145880996273894,1
944,309,47,0.17973497622816,1
945,309,47,0.141542740273274,1
946,309,47,0.120633314644232,1
946,310,47,0.146311334743856,1
946,311,47,0.174292650792644,1
947,308,47,0.114166366513602,1
947,309,47,0.116133527146006,1
947,310,47,0.114647863690593,1
947,311,47,0.123639618847848,1
947,312,47,0.118166909097384,1
948,308,47,0.1294629730143,1
948,309,47,0.133638979128472,1
948,310,47,0.115595818986362,1
949,308,47,0.121197002570843,1
949,309,47,0.134571400737646,1
949,310,47,0.117491258503251,1
951,312,47,0.124939867320883,1
952,312,47,0.14114092537339,1
952,313,47,0.131967323624234,1
953,312,47,0.130207270961856,1
953,313,47,0.136943167387238,1
954,313,47,0.115741475268251,1
958,314,47,0.115151854682138,1
962,313,47,0.11625326254526,1
963,312,47,0.12178506861061,1
963,313,47,0.158516914265073,1
964,312,47,0.20139788576044,1
964,313,47,0.205683393177087,1
965,311,47,0.149407602428823,1
965,312,47,0.26800821817992,1
965,313,47,0.21179200659806,1
966,295,47,0.128395423641673,1
966,311,47,0.175528256046785,1
966,312,47,0.274887768819927,1
966,313,47,0.179642504274296,1
967,311,47,0.182451180885223,1
967,312,47,0.238824696069702,1
968,311,47,0.175726755127577,1
968,312,47,0.192173019312459,1
969,294,47,0.119370551936498,1
969,310,47,0.120319732026359,1
969,311,47,0.165311011963506,1
969,312,47,0.147462947387839,1
970,310,47,0.126596177568386,1
970,311,47,0.138360666340746,1
978,285,47,0.142308613439816,1
978,286,47,0.143571317263218,1
979,285,47,0.149524205181652,1
979,286,47,0.139671655315809,1
981,273,47,0.119753688726496,1
984,276,47,0.117068103921706,1
984,277,47,0.115092405061264,1
984,278,47,0.114172938004974,1
984,280,47,0.117016285710167,1
984,281,47,0.119344972582984,1
985,279,47,0.159990812631094,1
985,280,47,0.148087804357799,1
985,281,47,0.125634537554024,1
943,307,48,0.130542994088296,1
943,308,48,0.16989938504973,1
943,309,48,0.180827633879651,1
944,308,48,0.121555231288703,1
944,309,48,0.143297222477911,1
944,310,48,0.164610347305439,1
945,309,48,0.12267456354227,1
945,310,48,0.150575231610918,1
946,310,48,0.123254821519708,1
948,308,48,0.115438951127795,1
948,309,48,0.130100160363232,1
948,310,48,0.117078267357287,1
949,309,48,0.119546039020621,1
952,312,48,0.126108014685093,1
953,312,48,0.115483726773311,1
963,313,48,0.128832663355263,1
964,312,48,0.172305304611472,1
964,313,48,0.182008417821357,1
965,311,48,0.138589373083492,1
965,312,48,0.256220564311629,1
965,313,48,0.21256506365302,1
966,295,48,0.127781095190149,1
966,296,48,0.137764014965476,1
966,311,48,0.184207629826525,1
966,312,48,0.294782923619297,1
966,313,48,0.194291300692696,1
967,295,48,0.15344140288292,1
967,311,48,0.195871261516244,1
967,312,48,0.249097656507251,1
968,311,48,0.174565073262943,1
968,312,48,0.173775740578813,1
969,310,48,0.121600642884997,1
969,311,48,0.147918017276945,1
970,310,48,0.117732896245149,1
978,285,48,0.124718179590427,1
978,286,48,0.114999626908877,1
979,285,48,0.122292204025446,1
981,272,48,0.132449609851264,1
981,273,48,0.125256123287396,1
983,276,48,0.113934974645349,1
983,277,48,0.126535691583281,1
983,280,48,0.125925708795407,1
983,281,48,0.120154231724824,1
984,278,48,0.141875542736882,1
984,279,48,0.137936746262894,1
984,280,48,0.149749967707833,1
984,281,48,0.137727165150953,1
985,279,48,0.167291704215242,1
985,280,48,0.156641389429028,1
985,281,48,0.128254819635409,1
948,309,49,0.124589623318346,1
953,291,49,0.172216872122735,1
964,312,49,0.142470992871793,1
964,313,49,0.149916433712401,1
965,311,49,0.121095544868023,1
965,312,49,0.219478131254399,1
965,313,49,0.188625261905729,1
966,296,49,0.121848604804076,1
966,311,49,0.169778860600437,1
966,312,49,0.266725199262222,1
967,295,49,0.124202411732623,1
967,296,49,0.13835004360738,1
967,311,49,0.183594738152685,1
967,312,49,0.223081640345999,1
968,311,49,0.162835950419958,1
968,312,49,0.150783387722042,1
969,310,49,0.116513225091056,1
969,311,49,0.133657280378638,1
977,274,49,0.113998145755961,1
978,285,49,0.114214039268218,1
981,272,49,0.120722736389735,1
981,273,49,0.126414990480995,1
981,274,49,0.11568270870562,1
982,273,49,0.140577567199034,1
982,274,49,0.121664296847126,1
983,274,49,0.139880682915036,1
983,275,49,0.121656335685535,1
983,276,49,0.132958511796039,1
983,277,49,0.152916696383626,1
983,278,49,0.122877820477031,1
983,279,49,0.123606973374578,1
983,280,49,0.141364014550931,1
983,281,49,0.124610338826095,1
984,278,49,0.156850640788715,1
984,279,49,0.149774016068733,1
984,280,49,0.157570831491039,1
984,281,49,0.132995078965773,1
985,279,49,0.161069561803534,1
985,280,49,0.148397135526952,1
985,281,49,0.121189253392845,1
948,310,50,0.115045945323873,1
952,292,50,0.117716691277177,1
953,291,50,0.16217284218839,1
953,292,50,0.138107051525863,1
954,291,50,0.118506129953103,1
959,284,50,0.148348391077507,1
960,282,50,0.163739141847078,1
960,283,50,0.125437640127043,1
964,312,50,0.113987617237526,1
965,312,50,0.169104776329516,1
966,311,50,0.137281375432458,1
967,311,50,0.147224948697615,1
968,311,50,0.132964588659029,1
975,275,50,0.137921966295739,1
976,274,50,0.137914664638659,1
976,275,50,0.13618439567105,1
977,273,50,0.116483429619422,1
977,274,50,0.135888066162246,1
977,275,50,0.122449943372116,1
978,273,50,0.11720870792797,1
978,274,50,0.12450115549901,1
979,274,50,0.117391296462446,1
980,273,50,0.115701881443889,1
980,274,50,0.122005425555178,1
981,273,50,0.126329101795369,1
981,274,50,0.126828146503086,1
982,274,50,0.131790105340771,1
982,275,50,0.117956103191352,1
983,274,50,0.149068452234302,1
983,275,50,0.141549182219118,1
983,278,50,0.132888321673137,1
983,279,50,0.13230025563337,1
983,280,50,0.139214465590776,1
983,281,50,0.117797692563305,1
984,279,50,0.154264594057544,1
984,280,50,0.149872611993052,1
984,281,50,0.118645356066014,1
952,291,51,0.136514265694959,1
953,291,51,0.132403609411657,1
961,282,51,0.126617693903041,1
965,312,51,0.123636015126772,1
975,275,51,0.164935447698513,1
976,274,51,0.150865248719407,1
976,275,51,0.160620203694563,1
977,273,51,0.116139132934346,1
977,274,51,0.145368832137165,1
977,275,51,0.14407513160177,1
978,273,51,0.11873835797886,1
978,274,51,0.136288891805364,1
978,275,51,0.128154504288617,1
979,273,51,0.117639435034519,1
979,274,51,0.133710382268599,1
979,275,51,0.125367591326536,1
980,273,51,0.11751641388958,1
980,274,51,0.131209070090161,1
980,275,51,0.122781733025225,1
981,273,51,0.124678903741454,1
981,274,51,0.131727652619001,1
981,275,51,0.124973831803173,1
982,274,51,0.140385863370074,1
982,275,51,0.143013400001074,1
982,276,51,0.12889087640518,1
982,277,51,0.118053297668586,1
983,274,51,0.156281570834223,1
983,278,51,0.140607668869192,1
983,279,51,0.131278636039152,1
983,280,51,0.120873209409923,1
984,279,51,0.151844459818227,1
952,291,52,0.122774502029342,1
957,284,52,0.137262803314368,1
960,282,52,0.261771707991376,1
961,282,52,0.159783363131945,1
973,277,52,0.128089095573415,1
974,276,52,0.133737351292332,1
975,275,52,0.175300726990665,1
976,274,52,0.157472529988377,1
976,275,52,0.168658291775913,1
977,273,52,0.115973609079078,1
977,274,52,0.151510197023204,1
977,275,52,0.157491584957983,1
978,273,52,0.121897679005776,1
978,274,52,0.150128499743123,1
978,275,52,0.14229956880653,1
979,273,52,0.123580569640426,1
979,274,52,0.148929061245263,1
979,275,52,0.135569160400824,1
980,273,52,0.119178647900811,1
980,274,52,0.13564887800853,1
980,275,52,0.127725755695599,1
981,274,52,0.132805200551082,1
981,275,52,0.134697307214819,1
982,274,52,0.146921953482509,1
982,277,52,0.125763659115685,1
982,278,52,0.11582735217701,1
983,278,52,0.143944490824361,1
983,279,52,0.121719659895408,1
984,279,52,0.141014430052905,1
984,280,52,0.114366314148944,1
942,306,53,0.120607346654131,1
951,291,53,0.114189814254323,1
952,290,53,0.12649867689263,1
957,284,53,0.118555510353326,1
958,284,53,0.139736922708615,1
959,284,53,0.137794434611023,1
960,282,53,0.256835387391536,1
960,283,53,0.224406773337439,1
960,284,53,0.130594894737898,1
961,282,53,0.16061114728441,1
961,283,53,0.125985252631211,1
971,278,53,0.119732125284376,1
972,278,53,0.138689087810105,1
973,277,53,0.168460652406358,1
973,278,53,0.118684137286604,1
974,277,53,0.11429367443786,1
974,279,53,0.12242915720317,1
974,280,53,0.121510149444664,1
975,276,53,0.117183917624495,1
976,274,53,0.152986603861738,1
976,275,53,0.159266959323363,1
976,276,53,0.119421298453208,1
977,274,53,0.15111366993627,1
977,275,53,0.158338553625584,1
977,276,53,0.119653491148366,1
978,274,53,0.158937207068117,1
978,275,53,0.147586698698487,1
979,274,53,0.154160592551613,1
979,275,53,0.13764447977295,1
979,278,53,0.118349792053517,1
980,274,53,0.136908861375826,1
980,275,53,0.129438241595157,1
981,274,53,0.139345518558504,1
981,275,53,0.144464580792082,1
981,276,53,0.124288771492899,1
982,274,53,0.15398038294412,1
982,277,53,0.135428285526636,1
982,278,53,0.119787994737908,1
983,278,53,0.142212337558151,1
984,279,53,0.133496384831811,1
985,280,53,0.127323045753879,1
942,306,54,0.118021770997611,1
958,284,54,0.114173397302758,1
959,284,54,0.137476953850418,1
959,285,54,0.123777631943534,1
960,283,54,0.20319482356794,1
960,284,54,0.148189462267344,1
960,285,54,0.140765926397978,1
960,286,54,0.117697212340385,1
961,282,54,0.128786050518611,1
961,283,54,0.119166388183036,1
970,282,54,0.130150318036629,1
970,283,54,0.133193790030157,1
971,282,54,0.120897611076812,1
971,283,54,0.124647836368263,1
972,278,54,0.157547265981655,1
972,279,54,0.116250377213026,1
973,278,54,0.130425661169759,1
973,279,54,0.13155760644709,1
973,280,54,0.121472899216688,1
974,277,54,0.129520608997771,1
974,279,54,0.144679909014758,1
974,280,54,0.15873645860587,1
974,281,54,0.114640291165588,1
975,276,54,0.127189331214377,1
976,274,54,0.146124459430062,1
976,275,54,0.148496673600571,1
976,276,54,0.1316574271655,1
977,274,54,0.149520731006105,1
977,275,54,0.152224287308806,1
977,276,54,0.130541062682229,1
978,274,54,0.16175445723768,1
978,275,54,0.146850550342382,1
978,276,54,0.117056868791295,1
979,274,54,0.149597162868125,1
979,275,54,0.134573508796707,1
979,276,54,0.117283914995898,1
980,274,54,0.134696447503582,1
980,275,54,0.128179377030155,1
980,276,54,0.123480937351876,1
981,274,54,0.143612783609316,1
981,275,54,0.146532657391458,1
981,276,54,0.13944591634336,1
981,277,54,0.123674372380177,1
982,277,54,0.147561825956948,1
982,278,54,0.122782333645405,1
983,278,54,0.13896882371435,1
984,279,54,0.132415303839852,1
985,279,54,0.150147943349316,1
985,280,54,0.124297686580657,1
986,279,54,0.139440133902027,1
986,280,54,0.120130995967695,1
947,285,55,0.118025516041081,1
947,286,55,0.114161078700652,1
959,283,55,0.151106238733661,1
959,284,55,0.133580942731549,1
959,285,55,0.137742957928606,1
960,283,55,0.153308654046451,1
960,284,55,0.143465643442278,1
960,285,55,0.163005631509015,1
960,286,55,0.139836872972554,1
968,280,55,0.132883340058709,1
968,281,55,0.151261834690672,1
969,280,55,0.118310162898556,1
970,279,55,0.122242670525961,1
970,282,55,0.154832415664212,1
970,283,55,0.16522802038698,1
971,282,55,0.146889296232373,1
971,283,55,0.149320512502839,1
972,278,55,0.161886216817384,1
972,279,55,0.117990173665438,1
973,278,55,0.137782422207439,1
973,279,55,0.135983293902815,1
973,280,55,0.127833749559192,1
974,278,55,0.120360845066468,1
974,279,55,0.152881707313971,1
974,280,55,0.170511829202652,1
974,281,55,0.120555340012732,1
976,275,55,0.144730372886677,1
976,276,55,0.14058318476424,1
976,277,55,0.117734062154908,1
977,273,55,0.12616950170383,1
977,274,55,0.148670947667469,1
977,275,55,0.145520047099928,1
977,276,55,0.136124168777003,1
977,277,55,0.120184886907695,1
978,274,55,0.157477346726677,1
978,275,55,0.142296966119086,1
978,276,55,0.12523379434897,1
979,274,55,0.146028383755123,1
979,275,55,0.131926069261729,1
979,276,55,0.123119034251744,1
980,274,55,0.139773748969406,1
980,275,55,0.130795089687432,1
980,276,55,0.13581886529611,1
980,277,55,0.124486081110199,1
981,274,55,0.149871281207165,1
981,275,55,0.146150156552239,1
982,278,55,0.119451411900231,1
983,278,55,0.133267277675612,1
984,279,55,0.13583416344538,1
985,279,55,0.141280104378837,1
985,280,55,0.119864897674578,1
986,278,55,0.141799852817436,1
986,279,55,0.127497084283452,1
986,280,55,0.114166802257654,1
987,280,55,0.120748021321592,1
943,280,56,0.125197474493428,1
943,281,56,0.119289421104842,1
944,279,56,0.131467407428414,1
945,278,56,0.134290840452763,1
945,279,56,0.125589055296533,1
946,277,56,0.136690659597783,1
946,278,56,0.128588411149056,1
946,279,56,0.122270475707198,1
946,285,56,0.116650425582971,1
947,280,56,0.120546118726452,1
947,285,56,0.117786539870958,1
947,286,56,0.114653069065479,1
959,284,56,0.120224433624593,1
959,285,56,0.133600421668341,1
960,284,56,0.123479771442117,1
960,285,56,0.15485442662725,1
960,286,56,0.138797128781163,1
967,281,56,0.114696396156445,1
968,280,56,0.136043061499078,1
968,281,56,0.167237719060312,1
968,282,56,0.11446268424554,1
969,280,56,0.116149779221444,1
969,281,56,0.118413257585786,1
970,282,56,0.153636898862816,1
970,283,56,0.170983092282865,1
971,282,56,0.14349456742581,1
971,283,56,0.148138786411833,1
972,278,56,0.161312907191039,1
972,279,56,0.115552633217791,1
973,278,56,0.144056335723221,1
973,279,56,0.13071938799112,1
973,280,56,0.120471747816027,1
974,278,56,0.126212616811203,1
974,279,56,0.141183969819566,1
974,280,56,0.150255124609138,1
975,277,56,0.123509861335408,1
976,276,56,0.142375105626713,1
976,277,56,0.117125045070067,1
977,272,56,0.117039639235958,1
977,274,56,0.14631884838453,1
977,275,56,0.140287585421144,1
977,276,56,0.140998225084932,1
977,277,56,0.126323236915972,1
978,273,56,0.147992187980643,1
978,274,56,0.148965216224678,1
978,275,56,0.140664091835438,1
978,276,56,0.140424102854816,1
978,277,56,0.126266484197471,1
979,274,56,0.141861375166772,1
979,275,56,0.131571090958956,1
979,276,56,0.126912751510289,1
980,274,56,0.141948747737546,1
980,275,56,0.132467863993965,1
983,278,56,0.126382439222655,1
983,279,56,0.11422117604917,1
984,279,56,0.132890547500859,1
985,278,56,0.143980740018705,1
985,279,56,0.126555535602927,1
986,279,56,0.114680344287735,1
943,278,57,0.135207492838017,1
943,279,57,0.123328309165162,1
944,276,57,0.139090360974141,1
944,277,57,0.127293992224819,1
944,278,57,0.121782195055242,1
944,279,57,0.115762897387976,1
945,275,57,0.134533279021567,1
945,276,57,0.128965329753668,1
945,277,57,0.118137879122056,1
945,278,57,0.115839388134327,1
946,274,57,0.138462241812228,1
946,275,57,0.130900174665059,1
946,277,57,0.127830793565761,1
946,278,57,0.126398455760767,1
946,279,57,0.120711430598126,1
946,280,57,0.116479920113276,1
947,278,57,0.146336525460784,1
947,279,57,0.131343208596849,1
947,280,57,0.129670799373169,1
948,280,57,0.134754165925117,1
948,282,57,0.115464824902966,1
960,285,57,0.119530693763886,1
968,280,57,0.114465251602384,1
968,281,57,0.137386059996633,1
969,279,57,0.128167988800483,1
970,279,57,0.122331715411744,1
970,282,57,0.121933998861318,1
970,283,57,0.139447682873299,1
971,278,57,0.152282724119182,1
971,283,57,0.118472177247679,1
972,278,57,0.147314723749106,1
973,277,57,0.160510773053286,1
973,278,57,0.135820914470839,1
974,278,57,0.119804694334263,1
977,276,57,0.140613580856054,1
977,277,57,0.122273973436477,1
978,259,57,0.139821845691207,1
978,260,57,0.123261534333475,1
978,274,57,0.144326261497872,1
978,275,57,0.140732020800019,1
978,276,57,0.150368924467796,1
978,277,57,0.130763975206776,1
979,259,57,0.147325770449657,1
979,260,57,0.136287160606024,1
979,261,57,0.116390557252105,1
979,270,57,0.130577759397492,1
979,271,57,0.132332665569314,1
979,272,57,0.13927269041756,1
979,273,57,0.146167327223244,1
979,274,57,0.141417728837937,1
979,275,57,0.134445046739556,1
979,277,57,0.115654267573605,1
980,260,57,0.123962882049785,1
980,269,57,0.117737548107321,1
980,270,57,0.123507847491278,1
980,271,57,0.128689939513073,1
980,272,57,0.138276520631327,1
980,273,57,0.148943805881819,1
980,274,57,0.143247818523955,1
981,268,57,0.114542660944303,1
981,269,57,0.119717239325425,1
981,270,57,0.122713474308389,1
981,271,57,0.124861056531879,1
981,272,57,0.136330970548507,1
981,273,57,0.151914249527677,1
981,274,57,0.147422482075374,1
982,265,57,0.119800077802689,1
982,266,57,0.118393331128076,1
982,267,57,0.114830993960917,1
982,268,57,0.116682011138277,1
982,269,57,0.124313349812781,1
982,270,57,0.129809283543506,1
982,271,57,0.129886916645884,1
982,272,57,0.139291615841638,1
982,273,57,0.161654848502864,1
983,264,57,0.126354021644373,1
983,265,57,0.13026587264836,1
983,266,57,0.124344605615832,1
983,267,57,0.115561736735409,1
983,270,57,0.131225828570847,1
983,271,57,0.131775714010203,1
983,272,57,0.137159060899494,1
983,278,57,0.121209921793129,1
984,264,57,0.131578651707094,1
984,265,57,0.142280619828719,1
984,266,57,0.131245130854645,1
984,271,57,0.120260317736083,1
984,272,57,0.121826370080579,1
984,278,57,0.129493663527771,1
984,279,57,0.119400759598452,1
985,265,57,0.134544031300461,1
985,266,57,0.130510254400096,1
985,272,57,0.117056562592772,1
985,273,57,0.145525122929285,1
986,265,57,0.11747791531378,1
986,266,57,0.122711542902323,1
986,272,57,0.121985404882538,1
986,273,57,0.155908727025336,1
986,274,57,0.166043980565721,1
987,273,57,0.132704143261715,1
987,274,57,0.137523460695274,1
988,273,57,0.117890082079105,1
988,274,57,0.118180688030907,1
989,273,57,0.11462108309672,1
942,278,58,0.114396215612375,1
943,276,58,0.123992795290083,1
943,277,58,0.127464038396729,1
943,278,58,0.122637077776969,1
944,275,58,0.137132857372069,1
944,276,58,0.140281013929772,1
944,277,58,0.119852979485924,1
945,273,58,0.136182688025443,1
945,274,58,0.142534976586177,1
945,275,58,0.137279385142061,1
945,276,58,0.124366251496015,1
946,272,58,0.119348152336874,1
946,273,58,0.134388635550176,1
946,274,58,0.140571584550975,1
946,275,58,0.126687672042351,1
946,276,58,0.115992475618825,1
946,277,58,0.121830974835286,1
946,278,58,0.123406743094446,1
946,279,58,0.117994024700705,1
946,280,58,0.119179001206799,1
947,274,58,0.122747945195929,1
947,275,58,0.115674559114169,1
947,277,58,0.149726343314118,1
947,278,58,0.151489740606512,1
947,279,58,0.134763870062914,1
947,280,58,0.132720607320745,1
947,281,58,0.116793302524423,1
948,278,58,0.163625235996623,1
948,279,58,0.136305120327069,1
948,280,58,0.13012044012693,1
948,281,58,0.12558566355905,1
948,282,58,0.119686136621635,1
949,280,58,0.132957157456419,1
949,282,58,0.113922891580568,1
950,281,58,0.120427725889952,1
958,282,58,0.120302160941901,1
969,278,58,0.133799957113364,1
970,278,58,0.135952191199025,1
971,277,58,0.121710662369587,1
971,278,58,0.126903859976263,1
972,277,58,0.143261102829095,1
972,278,58,0.125535246794596,1
973,277,58,0.146454129247244,1
973,278,58,0.120615437361251,1
974,255,58,0.123476403258367,1
976,256,58,0.119518139624454,1
977,276,58,0.136995433119695,1
977,277,58,0.115556390038128,1
978,258,58,0.115970052465468,1
978,259,58,0.128580956392714,1
978,260,58,0.120861785849652,1
978,274,58,0.139204408146991,1
978,275,58,0.143588381942427,1
978,277,58,0.133541325353454,1
979,258,58,0.124725940545292,1
979,259,58,0.144293663132068,1
979,260,58,0.132860410500103,1
979,261,58,0.115317390314272,1
979,273,58,0.140067322691506,1
979,274,58,0.138479671574291,1
980,259,58,0.130048035953171,1
980,260,58,0.12120651827878,1
980,270,58,0.135810892357652,1
980,271,58,0.141843462553193,1
980,272,58,0.146266570875207,1
980,273,58,0.146978364671888,1
980,274,58,0.139307667710348,1
981,266,58,0.115268422104368,1
981,268,58,0.116928489172208,1
981,269,58,0.124412546357279,1
981,270,58,0.129668726644708,1
981,271,58,0.13478824817607,1
981,272,58,0.146713514726594,1
981,273,58,0.156361241334464,1
981,274,58,0.146317788466566,1
982,265,58,0.120902522030042,1
982,266,58,0.121156525481511,1
982,267,58,0.114074047658999,1
982,268,58,0.115236824772195,1
982,269,58,0.123153846668405,1
982,270,58,0.126880836202728,1
982,271,58,0.128546261744715,1
982,272,58,0.141497010701591,1
982,273,58,0.16368798314005,1
983,264,58,0.119023122604998,1
983,265,58,0.128561383240992,1
983,266,58,0.121515825894201,1
983,269,58,0.115600447294802,1
983,270,58,0.124490815410435,1
983,271,58,0.127275019693276,1
983,272,58,0.135994658578755,1
983,278,58,0.117435235950458,1
984,264,58,0.115589000180798,1
984,265,58,0.129433083327735,1
984,266,58,0.122909029172617,1
984,272,58,0.120740413465989,1
984,273,58,0.146504593119163,1
985,265,58,0.124405291807663,1
985,266,58,0.126344140853582,1
985,272,58,0.116159777780897,1
985,273,58,0.149266138711323,1
985,274,58,0.165824236018198,1
985,277,58,0.11935288663711,1
986,265,58,0.115677079363548,1
986,266,58,0.119927326842616,1
986,272,58,0.118603477529598,1
986,273,58,0.15687501890187,1
986,274,58,0.160523138762858,1
986,275,58,0.132205911157771,1
987,273,58,0.135263444729612,1
987,274,58,0.131635498640526,1
988,273,58,0.125036119648816,1
988,274,58,0.115647248561314,1
989,273,58,0.119812726157051,1
989,277,58,0.121291370600175,1
989,278,58,0.116708155781372,1
943,276,59,0.115131834009498,1
944,273,59,0.124219782610355,1
944,274,59,0.126759381381001,1
944,275,59,0.131515115513628,1
944,276,59,0.128838540011526,1
945,272,59,0.120888130699473,1
945,273,59,0.133793444506323,1
945,274,59,0.139258134210864,1
945,275,59,0.131522817584161,1
945,276,59,0.118329724273412,1
946,273,59,0.125068070286976,1
946,274,59,0.131331773259711,1
946,275,59,0.120703398775338,1
946,277,59,0.118371049297114,1
946,278,59,0.121165676106594,1
946,279,59,0.116669398114514,1
946,280,59,0.119565152874559,1
947,276,59,0.122055806989033,1
947,277,59,0.145962668841398,1
947,278,59,0.149413961936603,1
947,279,59,0.136327143066973,1
947,280,59,0.134640695818713,1
947,281,59,0.122230234155192,1
948,275,59,0.11788040149504,1
948,279,59,0.139922219922331,1
948,280,59,0.129584180521836,1
948,281,59,0.119597291942579,1
949,280,59,0.124207640661242,1
950,280,59,0.126632014572412,1
951,279,59,0.150391206298758,1
951,280,59,0.123793766250309,1
952,279,59,0.121178112477364,1
972,276,59,0.132680742628459,1
972,277,59,0.120214929693522,1
973,277,59,0.134962592904165,1
974,255,59,0.116034047956718,1
974,256,59,0.124992297929467,1
974,257,59,0.115970123126666,1
974,268,59,0.116756546924829,1
975,255,59,0.116175311467493,1
975,256,59,0.121759901447415,1
975,257,59,0.119198444812992,1
976,258,59,0.117435389049719,1
976,267,59,0.141906468787677,1
977,266,59,0.117888515755893,1
977,276,59,0.132934969840388,1
978,259,59,0.115974127261194,1
978,260,59,0.115133306117781,1
978,275,59,0.147622123512193,1
978,277,59,0.130763480578393,1
979,258,59,0.115796178812023,1
979,259,59,0.130239186269418,1
979,260,59,0.119726283958712,1
979,274,59,0.138456812676883,1
980,259,59,0.12637326504384,1
980,260,59,0.115267150202812,1
980,271,59,0.157396062795758,1
980,272,59,0.156572023686764,1
980,273,59,0.147638587571223,1
980,274,59,0.136609305005668,1
981,266,59,0.118902480387042,1
981,270,59,0.141121140238075,1
981,271,59,0.151956740461139,1
981,272,59,0.160048154192908,1
981,273,59,0.16222761639336,1
981,274,59,0.150977717792179,1
982,265,59,0.122668262918822,1
982,266,59,0.120785683739888,1
982,269,59,0.120240650369431,1
982,270,59,0.127497955771555,1
982,271,59,0.132629949004285,1
982,272,59,0.143894333150965,1
982,273,59,0.161885262891217,1
982,274,59,0.163269904387863,1
982,278,59,0.115528137335973,1
983,264,59,0.113936540968562,1
983,265,59,0.123879525390405,1
983,266,59,0.114684218876734,1
983,270,59,0.114022676968378,1
983,271,59,0.119115382575269,1
983,272,59,0.13130668853458,1
983,273,59,0.155414075088734,1
983,277,59,0.132808215428844,1
984,265,59,0.113774373520178,1
984,272,59,0.117080716945469,1
984,273,59,0.14308039859322,1
984,274,59,0.16404466908843,1
984,277,59,0.124860526572897,1
985,266,59,0.115993453098724,1
985,273,59,0.140790033643209,1
985,274,59,0.156406912021816,1
985,275,59,0.143689886752712,1
985,276,59,0.127599001284055,1
986,273,59,0.139200757318451,1
986,274,59,0.142072734585519,1
986,275,59,0.117747264021984,1
987,273,59,0.127432982800405,1
987,274,59,0.119437138338326,1
988,273,59,0.12505842503351,1
989,273,59,0.119166647274094,1
944,274,60,0.120431788908811,1
944,275,60,0.118816026411837,1
945,273,60,0.123191803508357,1
945,274,60,0.127220693009224,1
945,275,60,0.120352189069768,1
946,274,60,0.115516631337638,1
946,278,60,0.11583707986854,1
946,279,60,0.113991421165328,1
946,280,60,0.118619647166971,1
946,281,60,0.126100100630967,1
946,282,60,0.130188263099715,1
946,283,60,0.116414122761489,1
947,276,60,0.121902625289605,1
947,277,60,0.138570624312408,1
947,278,60,0.140153022947271,1
947,279,60,0.134659856780116,1
947,280,60,0.136326330463201,1
947,281,60,0.135503221726641,1
947,282,60,0.127858987383585,1
948,275,60,0.12058965780101,1
948,276,60,0.152335107620301,1
948,279,60,0.145808003256822,1
948,280,60,0.13302719448006,1
948,281,60,0.118381047856568,1
949,272,60,0.115626285739374,1
949,273,60,0.114000583567277,1
949,274,60,0.116356239463827,1
949,275,60,0.141525369395542,1
949,280,60,0.121497371544773,1
950,271,60,0.128404256291367,1
950,272,60,0.133771586642546,1
950,273,60,0.129647587169773,1
950,274,60,0.132000899469937,1
950,280,60,0.113907876076088,1
951,270,60,0.123515349355085,1
951,271,60,0.132883669810964,1
951,272,60,0.130375633041892,1
951,273,60,0.128377640573622,1
951,274,60,0.139195033761449,1
951,279,60,0.136704026340987,1
952,269,60,0.117295962730081,1
952,270,60,0.126345236102144,1
952,271,60,0.119318415749571,1
952,274,60,0.127079135076793,1
952,275,60,0.148783887814891,1
952,278,60,0.127074000363104,1
965,272,60,0.114759319952866,1
966,273,60,0.123649405423709,1
972,275,60,0.125845319906324,1
972,276,60,0.118224521527122,1
973,269,60,0.114713849472241,1
973,274,60,0.124519397864845,1
973,277,60,0.1159421883999,1
974,267,60,0.118120802665981,1
974,268,60,0.122244448832767,1
975,266,60,0.118124877461707,1
975,267,60,0.130901823426335,1
976,266,60,0.113947234363124,1
976,267,60,0.126136679577567,1
977,275,60,0.127155190079092,1
977,276,60,0.119703095309048,1
978,275,60,0.138869721384782,1
978,277,60,0.124340471935775,1
979,274,60,0.127666588719515,1
979,278,60,0.113806795232988,1
980,271,60,0.154032519131048,1
980,272,60,0.150009058765526,1
980,273,60,0.138554348683238,1
980,274,60,0.128502004281315,1
980,275,60,0.123161348532211,1
980,277,60,0.124390653162904,1
981,270,60,0.138567432781652,1
981,271,60,0.152347661759733,1
981,272,60,0.155554208020347,1
981,273,60,0.154777947657765,1
981,274,60,0.148540554204252,1
981,275,60,0.131357682365481,1
982,265,60,0.114862603069956,1
982,270,60,0.117859156028309,1
982,271,60,0.126598238519981,1
982,272,60,0.136268812248393,1
982,273,60,0.151746747158878,1
982,274,60,0.158556531643168,1
982,275,60,0.147826039951464,1
982,276,60,0.129380605611686,1
982,277,60,0.119218053295313,1
983,272,60,0.122100759287543,1
983,273,60,0.145019612721993,1
983,274,60,0.156510018485911,1
983,276,60,0.138000435555622,1
983,277,60,0.123798865633399,1
984,273,60,0.136589084126301,1
984,274,60,0.151686826463353,1
984,275,60,0.142530265839673,1
984,276,60,0.127395049514185,1
985,273,60,0.128507021226341,1
985,274,60,0.143155299462626,1
985,275,60,0.127674856079628,1
986,273,60,0.118252256047162,1
986,274,60,0.122119131198907,1
988,273,60,0.115357054799831,1
945,282,61,0.114673207506782,1
946,280,61,0.113775716082931,1
946,281,61,0.132500709673961,1
946,282,61,0.146973618594786,1
946,283,61,0.121323285907736,1
947,276,61,0.125727068392219,1
947,277,61,0.131685420776597,1
947,278,61,0.130709212778672,1
947,279,61,0.127045618115421,1
947,280,61,0.129655395232103,1
947,281,61,0.134871852149641,1
947,282,61,0.126334401385186,1
948,275,61,0.130378836349514,1
948,276,61,0.158111625189643,1
948,278,61,0.153927775682542,1
948,279,61,0.142046165975239,1
948,280,61,0.127677140791682,1
949,273,61,0.113915142402569,1
949,274,61,0.118696856302164,1
949,275,61,0.139855774842899,1
949,279,61,0.145542764674941,1
949,280,61,0.113791673736712,1
950,271,61,0.122372121839878,1
950,272,61,0.124865519964191,1
950,273,61,0.127847186963593,1
950,274,61,0.132612389696693,1
950,275,61,0.149712529049996,1
950,279,61,0.133003581863211,1
951,270,61,0.123288597572138,1
951,271,61,0.128497587956468,1
951,272,61,0.121314264828182,1
951,273,61,0.123482880534809,1
951,274,61,0.138759183718077,1
951,275,61,0.15840718920214,1
951,278,61,0.149624791396368,1
951,279,61,0.115993441321858,1
952,269,61,0.115179129904394,1
952,270,61,0.125074429794756,1
952,271,61,0.11834238440464,1
952,274,61,0.125223348268598,1
952,275,61,0.14408935805621,1
952,276,61,0.141281929793107,1
952,277,61,0.133660942984045,1
960,270,61,0.123698715162734,1
966,272,61,0.119051964150465,1
966,273,61,0.137103109007899,1
967,273,61,0.118335612706541,1
967,274,61,0.115319710356925,1
972,275,61,0.12086321085047,1
973,268,61,0.120060193447747,1
973,274,61,0.115436395547817,1
973,275,61,0.133192812550258,1
973,276,61,0.126272384407467,1
974,274,61,0.114855666495729,1
975,267,61,0.117802886161325,1
975,277,61,0.114626017603683,1
976,267,61,0.113784949146078,1
976,275,61,0.122258581072277,1
976,276,61,0.122354574309153,1
977,275,61,0.121119475460261,1
977,276,61,0.116948898481434,1
978,274,61,0.121319693963527,1
978,275,61,0.125451925465815,1
978,276,61,0.129166655282363,1
978,277,61,0.117946163516229,1
979,273,61,0.119276372337027,1
979,274,61,0.11664901235902,1
979,275,61,0.120670965285661,1
979,277,61,0.133639768178512,1
980,271,61,0.141761295357305,1
980,272,61,0.137792573866154,1
980,273,61,0.127513006606634,1
980,274,61,0.118844608866247,1
981,270,61,0.129900954670465,1
981,271,61,0.142731638475832,1
981,272,61,0.14216307492659,1
981,273,61,0.139173175897673,1
981,274,61,0.136108717528471,1
981,275,61,0.118776456141207,1
982,271,61,0.116998855948104,1
982,272,61,0.125834720726691,1
982,273,61,0.140246637257162,1
982,274,61,0.148664435060428,1
982,275,61,0.134481943661545,1
982,276,61,0.114862603069956,1
983,273,61,0.1356275972112,1
983,274,61,0.145052976584104,1
983,275,61,0.132353793267382,1
983,276,61,0.117194893663848,1
983,287,61,0.11871478069261,1
984,273,61,0.123442886296994,1
984,274,61,0.132436184223729,1
984,275,61,0.119328414309024,1
985,274,61,0.120182884840431,1
945,282,62,0.116895549277282,1
946,281,62,0.1330674242552,1
946,282,62,0.149753889404297,1
946,283,62,0.115114557346697,1
947,276,62,0.127341570764504,1
947,277,62,0.125494487060474,1
947,278,62,0.123453650352755,1
947,279,62,0.120464410828348,1
947,280,62,0.121163709369929,1
947,281,62,0.128380620120785,1
947,282,62,0.117811553934891,1
948,275,62,0.139796089684699,1
948,276,62,0.160760572163502,1
948,277,62,0.153559831050019,1
948,278,62,0.144302966856412,1
948,279,62,0.134751598568272,1
948,280,62,0.116666783650205,1
949,274,62,0.118436599334711,1
949,275,62,0.137769502985153,1
949,276,62,0.159993203334945,1
949,278,62,0.15514805923368,1
949,279,62,0.135676070792722,1
950,272,62,0.115664242579326,1
950,273,62,0.123843747270711,1
950,274,62,0.132159392536048,1
950,275,62,0.141515724142076,1
950,276,62,0.154548310542585,1
950,278,62,0.146515769365243,1
950,279,62,0.115768774044239,1
951,270,62,0.12290873475096,1
951,271,62,0.122615867640836,1
951,272,62,0.114608140320702,1
951,273,62,0.119535428064122,1
951,274,62,0.137215931386658,1
951,275,62,0.15077256478195,1
951,276,62,0.149239028365195,1
951,277,62,0.149628512886106,1
951,278,62,0.126878304176482,1
952,270,62,0.120106299879151,1
952,271,62,0.114043357145529,1
952,274,62,0.121250787519047,1
952,275,62,0.134397338654341,1
952,276,62,0.121738985732939,1
960,270,62,0.120599550368668,1
960,271,62,0.127903503938043,1
961,271,62,0.117855893836356,1
966,272,62,0.118340606097835,1
966,273,62,0.137002346140189,1
967,273,62,0.126458058480903,1
967,274,62,0.121887256479137,1
973,268,62,0.113953240564916,1
973,269,62,0.118649301316211,1
973,275,62,0.114292155222112,1
974,276,62,0.117863454584494,1
975,276,62,0.114461459451449,1
978,276,62,0.117988748664621,1
979,271,62,0.11968196761098,1
979,272,62,0.114909698758125,1
979,277,62,0.114784887529514,1
980,270,62,0.125506629009587,1
980,271,62,0.127073234866798,1
980,272,62,0.122403271651133,1
980,273,62,0.114210753522531,1
981,270,62,0.117183281673717,1
981,271,62,0.125980624322771,1
981,272,62,0.123439788981168,1
981,273,62,0.119868560279984,1
981,274,62,0.117591656288107,1
982,273,62,0.125686214443168,1
982,274,62,0.133527228444543,1
982,275,62,0.115894315438558,1
983,273,62,0.124037064530349,1
983,274,62,0.132580721703323,1
983,287,62,0.11488780556375,1
985,292,62,0.119808604253861,1
985,293,62,0.159201797922354,1
986,293,62,0.141380466833094,1
987,294,62,0.139145099848512,1
987,295,62,0.136024006529472,1
946,281,63,0.124025040349899,1
946,282,63,0.132992417393998,1
947,275,63,0.114051824712369,1
947,276,63,0.125844448418221,1
947,277,63,0.123329004000272,1
947,278,63,0.123092630517591,1
947,279,63,0.118370931528452,1
947,280,63,0.113985297194873,1
947,281,63,0.117963169311107,1
948,275,63,0.14314808024361,1
948,276,63,0.157552624455803,1
948,277,63,0.145390843100203,1
948,278,63,0.137532210906904,1
948,279,63,0.125854517638872,1
949,274,63,0.116535671798146,1
949,275,63,0.138371183082315,1
949,276,63,0.150540207210664,1
949,277,63,0.148456172957507,1
949,278,63,0.141291669261503,1
949,279,63,0.123134874136862,1
950,273,63,0.119351803165414,1
950,274,63,0.128497976593054,1
950,275,63,0.135001056149366,1
950,276,63,0.13708651540334,1
950,277,63,0.137669847142871,1
950,278,63,0.1248739286467,1
951,270,63,0.1175687620601,1
951,271,63,0.11678078371559,1
951,273,63,0.117927061439158,1
951,274,63,0.129002544651046,1
951,275,63,0.134679889229622,1
951,276,63,0.126650315822578,1
951,277,63,0.120365756019698,1
952,275,63,0.115055731899734,1
960,271,63,0.133867320788364,1
960,272,63,0.136957382064813,1
961,271,63,0.131189885575025,1
961,272,63,0.135938824455822,1
966,273,63,0.116267748090758,1
967,273,63,0.115815104236101,1
985,293,63,0.149257576929552,1
985,294,63,0.139572411663846,1
986,293,63,0.155228777875018,1
986,294,63,0.174277305535909,1
986,295,63,0.137345535799836,1
987,293,63,0.118936715737257,1
987,294,63,0.151301828928487,1
987,295,63,0.128839081747374,1
946,278,64,0.117674683195232,1
947,276,64,0.124219052444647,1
947,277,64,0.124139523266801,1
947,278,64,0.12440404345984,1
947,279,64,0.11794836579022,1
948,275,64,0.138588784240179,1
948,276,64,0.150935968801291,1
948,277,64,0.142511422853659,1
948,278,64,0.134505897807515,1
948,279,64,0.119305944048203,1
949,274,64,0.114552306197769,1
949,275,64,0.138660505355695,1
949,276,64,0.146347960797921,1
949,277,64,0.141587928109109,1
949,278,64,0.132432227196666,1
950,274,64,0.122824094413158,1
950,275,64,0.129067423407266,1
950,276,64,0.124523684644163,1
950,277,64,0.117578254214304,1
951,274,64,0.117436743389339,1
951,275,64,0.115729604187062,1
959,272,64,0.116371773150422,1
960,271,64,0.129800121141557,1
960,272,64,0.159014027566723,1
960,273,64,0.119087730493293,1
961,271,64,0.134321719396094,1
961,272,64,0.161167922190527,1
961,273,64,0.133672884726431,1
962,272,64,0.126655073676546,1
962,273,64,0.123081725139436,1
985,293,64,0.12213366385187,1
985,294,64,0.116421813055156,1
986,293,64,0.15243304404011,1
986,294,64,0.150615131633803,1
987,293,64,0.124609161139469,1
987,294,64,0.136108270007553,1
946,277,65,0.114646273813648,1
946,278,65,0.118423114822844,1
947,276,65,0.121550061244415,1
947,277,65,0.123582088856173,1
947,278,65,0.121975594752944,1
948,275,65,0.123338095741024,1
948,276,65,0.138515991429833,1
948,277,65,0.137852047040761,1
948,278,65,0.128971171079333,1
949,275,65,0.131956677337136,1
949,276,65,0.143366894418698,1
949,277,65,0.139932289142982,1
949,278,65,0.123636580416353,1
950,274,65,0.11655605755364,1
950,275,65,0.127092843349118,1
950,276,65,0.123887133246009,1
960,271,65,0.115530092295772,1
960,272,65,0.148828793005936,1
960,273,65,0.117291982149286,1
961,271,65,0.125104460803716,1
961,272,65,0.156823188913465,1
961,273,65,0.130401000411813,1
962,272,65,0.132376911255848,1
962,273,65,0.120291043580152,1
986,293,65,0.133685945271112,1
987,293,65,0.117987182341409,1
946,277,66,0.113797432624313,1
947,276,66,0.114553295454535,1
947,277,66,0.119968899180509,1
947,278,66,0.114698103802053,1
948,276,66,0.119554412372531,1
948,277,66,0.12525872597484,1
948,278,66,0.116044600028886,1
949,276,66,0.126387715258739,1
949,277,66,0.124771858546835,1
950,275,66,0.114365925512357,1
960,272,66,0.11678289177465,1
961,272,66,0.129351457867696,1
962,272,66,0.122841159092367,1
946,277,67,0.115446653198328,1
947,277,67,0.120906102197384,1
947,278,67,0.113934574231896,1
948,277,67,0.117439581614107,1
946,277,68,0.11553053981669,1
947,277,68,0.119563374567754,1
947,278,68,0.11456672108207,1
