x,y,z,signal,mito.p
1008,233,24,0.117912481678729,1
1008,234,24,0.122020700150716,1
1008,235,24,0.114962647548824,1
1009,234,24,0.115065954219646,1
1009,235,24,0.117963357740967,1
1006,233,25,0.115883822250721,1
1007,231,25,0.140944487244194,1
1007,232,25,0.163868074978879,1
1007,235,25,0.140369729063299,1
1007,236,25,0.125827407292744,1
1008,231,25,0.143997227631468,1
1008,232,25,0.168634172753815,1
1008,236,25,0.160396066375926,1
1008,237,25,0.140469538004842,1
1008,238,25,0.114775454259641,1
1009,232,25,0.115890652833151,1
1009,233,25,0.144234566817181,1
1009,234,25,0.168184873529175,1
1009,235,25,0.171431366920139,1
1009,236,25,0.157324742093695,1
1009,237,25,0.13696138619934,1
1009,238,25,0.116935814383021,1
1009,240,25,0.113900232889886,1
1009,241,25,0.118634803993846,1
1010,235,25,0.122026294162189,1
1010,236,25,0.123130775787404,1
1010,237,25,0.117946351946089,1
1010,238,25,0.116044882673677,1
1010,239,25,0.123922145869396,1
1010,240,25,0.136486060100269,1
1010,241,25,0.139798362619887,1
1010,242,25,0.123988508510764,1
1011,236,25,0.113844445874418,1
1011,238,25,0.117993435857392,1
1011,239,25,0.134651554089404,1
1011,240,25,0.145070300354371,1
1011,241,25,0.140936867611724,1
1011,242,25,0.131972258131196,1
1011,243,25,0.117334202214823,1
1012,236,25,0.122701768103328,1
1012,237,25,0.115891335891394,1
1012,238,25,0.114031698047933,1
1012,239,25,0.129669409702951,1
1012,240,25,0.13857826749861,1
1012,241,25,0.133343897967492,1
1012,242,25,0.138034235161784,1
1012,243,25,0.143000174580265,1
1012,244,25,0.12531907063755,1
1013,236,25,0.12554908461245,1
1013,237,25,0.125471981469054,1
1013,239,25,0.115394917424853,1
1013,240,25,0.120619559264441,1
1013,241,25,0.116755534114331,1
1013,242,25,0.127042155716741,1
1013,243,25,0.148764361770634,1
1013,244,25,0.141039726761628,1
1014,237,25,0.127909039065184,1
1014,238,25,0.116407610154447,1
1014,243,25,0.134199440193729,1
1014,244,25,0.134331246880897,1
1015,243,25,0.115715801699807,1
1019,252,25,0.1242521572157,1
1019,253,25,0.129034883925793,1
1020,252,25,0.129504769112653,1
1020,253,25,0.133970297706931,1
1006,230,26,0.128218758870925,1
1006,231,26,0.15329587614656,1
1007,229,26,0.121661246638765,1
1007,230,26,0.167192625439407,1
1007,237,26,0.15367066313838,1
1008,230,26,0.142587195211168,1
1008,231,26,0.18465838938258,1
1008,237,26,0.194641297381042,1
1008,238,26,0.139772111984996,1
1009,232,26,0.143896888730943,1
1009,237,26,0.186637821509627,1
1009,238,26,0.146415124266195,1
1009,239,26,0.131558053968008,1
1009,240,26,0.141462186508064,1
1009,241,26,0.151796963716606,1
1009,242,26,0.14005421503936,1
1010,234,26,0.132097257789667,1
1010,235,26,0.15164053160209,1
1010,236,26,0.166778845243404,1
1010,237,26,0.159363246981895,1
1010,238,26,0.146317658921037,1
1010,239,26,0.151526260668781,1
1010,240,26,0.166730512984278,1
1010,241,26,0.177017146363553,1
1010,242,26,0.168442080288268,1
1010,243,26,0.133557118131107,1
1011,235,26,0.122882295686209,1
1011,236,26,0.148496155418456,1
1011,237,26,0.150749635223345,1
1011,238,26,0.150788863964853,1
1011,239,26,0.167366864175706,1
1011,240,26,0.177770076754077,1
1011,241,26,0.173440099890437,1
1011,242,26,0.166534098408813,1
1011,243,26,0.149265208338888,1
1011,244,26,0.134037920472989,1
1011,245,26,0.131774983844495,1
1011,246,26,0.141225247735803,1
1012,235,26,0.120903523063674,1
1012,236,26,0.14512989129764,1
1012,237,26,0.145333996166771,1
1012,238,26,0.1455603004288,1
1012,239,26,0.162498201672522,1
1012,240,26,0.172187053097368,1
1012,241,26,0.162535840537085,1
1012,242,26,0.162430861551254,1
1012,243,26,0.169760547573405,1
1012,244,26,0.163456438172536,1
1012,245,26,0.144072010732211,1
1012,246,26,0.132566448141417,1
1013,236,26,0.129122244719701,1
1013,237,26,0.13728344816092,1
1013,238,26,0.133920516893255,1
1013,239,26,0.14232745642583,1
1013,240,26,0.152966218106244,1
1013,241,26,0.148390917341567,1
1013,242,26,0.154291798618602,1
1013,243,26,0.180002570183292,1
1013,244,26,0.183611202211714,1
1013,245,26,0.147581622869129,1
1013,246,26,0.119446147641014,1
1014,237,26,0.127230974213468,1
1014,238,26,0.12756864052284,1
1014,239,26,0.130735545851627,1
1014,240,26,0.146304727921885,1
1014,241,26,0.146807647218601,1
1014,242,26,0.146585676843355,1
1014,243,26,0.169373041566026,1
1014,244,26,0.176780360690554,1
1014,245,26,0.140409428879458,1
1015,240,26,0.128078826146037,1
1015,241,26,0.135300518304595,1
1015,242,26,0.129430209772368,1
1015,243,26,0.139774078721662,1
1015,244,26,0.142656996697484,1
1015,245,26,0.116688123331866,1
1018,252,26,0.122541402515482,1
1018,253,26,0.126154250662025,1
1019,252,26,0.146646598572512,1
1019,253,26,0.150545989651997,1
1019,254,26,0.117661563766219,1
1020,252,26,0.136800914619698,1
1020,253,26,0.141006304015186,1
1020,254,26,0.115988412599966,1
1023,254,26,0.121997275963727,1
1005,230,27,0.121797799403035,1
1006,229,27,0.135809526241166,1
1007,228,27,0.127920121096334,1
1007,229,27,0.165412375451396,1
1008,228,27,0.120058226711082,1
1008,229,27,0.136630032290283,1
1008,230,27,0.164510585471361,1
1008,238,27,0.151609911749817,1
1008,239,27,0.124633645244421,1
1008,240,27,0.119156872475099,1
1009,231,27,0.119207465892547,1
1009,239,27,0.155650095265427,1
1009,240,27,0.161365502675751,1
1009,241,27,0.173078196790305,1
1009,242,27,0.169810245949017,1
1009,243,27,0.13388206542492,1
1010,233,27,0.117685977209974,1
1010,239,27,0.175389053487606,1
1010,240,27,0.186902447694462,1
1010,241,27,0.202815726243069,1
1010,242,27,0.207919254790052,1
1010,243,27,0.174796818437183,1
1010,244,27,0.146146623492361,1
1010,245,27,0.134854316395781,1
1011,235,27,0.154171863012622,1
1011,240,27,0.196632235506423,1
1011,241,27,0.19576176021377,1
1011,242,27,0.195121828854999,1
1011,243,27,0.183833502339215,1
1011,244,27,0.174606327625447,1
1011,245,27,0.165118731068099,1
1011,246,27,0.152026730377315,1
1011,247,27,0.115802938733256,1
1012,235,27,0.126429782225016,1
1012,236,27,0.164803464358351,1
1012,237,27,0.17901089915997,1
1012,238,27,0.18233758123329,1
1012,239,27,0.191371591786682,1
1012,240,27,0.196596728254652,1
1012,241,27,0.183051954163683,1
1012,242,27,0.17372116658057,1
1012,243,27,0.18195549258439,1
1012,244,27,0.192221445786515,1
1012,245,27,0.181899941106247,1
1012,246,27,0.161530685001897,1
1012,247,27,0.12535986570227,1
1013,236,27,0.126985391221373,1
1013,237,27,0.149340745159072,1
1013,238,27,0.161878255655793,1
1013,239,27,0.175640018507581,1
1013,240,27,0.191186694986418,1
1013,241,27,0.18778083704124,1
1013,242,27,0.180629900295166,1
1013,243,27,0.198835852059571,1
1013,245,27,0.189824111560276,1
1013,246,27,0.165746143618036,1
1013,247,27,0.133567163798026,1
1014,237,27,0.117826475224441,1
1014,238,27,0.133806622819666,1
1014,239,27,0.154612847769683,1
1014,240,27,0.188204450920569,1
1014,241,27,0.202109820879517,1
1014,242,27,0.195287258495337,1
1014,243,27,0.208244979357038,1
1014,244,27,0.215367628070359,1
1014,245,27,0.181683329205149,1
1014,246,27,0.153043262365309,1
1014,247,27,0.124463575518778,1
1015,239,27,0.115483467682253,1
1015,240,27,0.151861159414582,1
1015,241,27,0.169148068089884,1
1015,242,27,0.160853715398743,1
1015,243,27,0.166677163780125,1
1015,244,27,0.172228931633784,1
1015,245,27,0.14477821051742,1
1015,246,27,0.118872013634031,1
1017,252,27,0.123198492768392,1
1017,253,27,0.12502656861028,1
1018,252,27,0.152503669907064,1
1018,253,27,0.158472433041214,1
1018,254,27,0.128414914355331,1
1019,252,27,0.160753294060154,1
1019,253,27,0.163922495877861,1
1019,254,27,0.133013780629392,1
1020,252,27,0.13457774846856,1
1020,253,27,0.138412708312743,1
1020,254,27,0.122521888248091,1
1021,254,27,0.121371771266123,1
1021,255,27,0.131018426179163,1
1021,256,27,0.125381664681715,1
1022,254,27,0.137522459661642,1
1022,255,27,0.159021176124542,1
1022,256,27,0.139617340408623,1
1023,254,27,0.153644777586344,1
1023,255,27,0.172757489168345,1
1024,254,27,0.146440032338333,1
1005,229,28,0.122101878089838,1
1006,228,28,0.120320026448015,1
1007,227,28,0.13265366761293,1
1007,228,28,0.157667166257036,1
1008,226,28,0.128418800721196,1
1008,227,28,0.145720913330838,1
1008,228,28,0.155033941399633,1
1008,229,28,0.168771856097246,1
1008,239,28,0.149187257261121,1
1008,240,28,0.131723094971759,1
1009,227,28,0.122675128831851,1
1009,228,28,0.13563058853523,1
1009,229,28,0.14344199549483,1
1009,230,28,0.134973074315135,1
1009,231,28,0.135864783297653,1
1009,240,28,0.177442067475037,1
1009,241,28,0.183135028178272,1
1009,242,28,0.194301652558138,1
1009,243,28,0.170049834516186,1
1010,233,28,0.12281826486436,1
1010,240,28,0.201465461419033,1
1010,241,28,0.213911771863446,1
1010,245,28,0.183681651425674,1
1010,246,28,0.159052714572383,1
1011,234,28,0.114208975215726,1
1011,241,28,0.208813024724165,1
1011,242,28,0.210277218952388,1
1011,246,28,0.177465892075479,1
1011,247,28,0.125048096721801,1
1012,235,28,0.121064760139623,1
1012,241,28,0.196503902994801,1
1012,242,28,0.176716789166489,1
1012,243,28,0.186637491757371,1
1012,246,28,0.190004132737908,1
1012,247,28,0.143064900237224,1
1013,236,28,0.113961955445948,1
1013,237,28,0.151115342251279,1
1013,238,28,0.183498591816548,1
1013,239,28,0.207500445872157,1
1013,242,28,0.197843651077268,1
1013,246,28,0.207283256904612,1
1013,247,28,0.166503855416261,1
1014,238,28,0.126127210977095,1
1014,239,28,0.166671593322385,1
1014,240,28,0.221394934006681,1
1014,242,28,0.229744567308041,1
1014,243,28,0.230875593989804,1
1014,246,28,0.183962671008342,1
1014,247,28,0.147567843935606,1
1015,240,28,0.156075098814974,1
1015,241,28,0.182317996304702,1
1015,242,28,0.172427489598907,1
1015,243,28,0.17515304508778,1
1015,244,28,0.188065625221111,1
1015,245,28,0.163925640301152,1
1015,246,28,0.131716747240845,1
1017,252,28,0.124574360499675,1
1017,253,28,0.136134650187973,1
1017,254,28,0.120645327047816,1
1018,252,28,0.154060866048133,1
1018,253,28,0.174767494040199,1
1018,254,28,0.151515567274218,1
1018,255,28,0.118724037309489,1
1018,256,28,0.1159258185558,1
1019,252,28,0.150320238902682,1
1019,253,28,0.163403124298982,1
1019,254,28,0.143604634017864,1
1019,255,28,0.122430228897999,1
1019,256,28,0.127746482980214,1
1019,257,28,0.148649984845528,1
1020,252,28,0.118270604404793,1
1020,253,28,0.12576758081215,1
1020,254,28,0.122080361755183,1
1020,255,28,0.127938787429354,1
1020,256,28,0.139496380215279,1
1020,257,28,0.144993150103509,1
1021,254,28,0.125189631100499,1
1021,255,28,0.163004960227638,1
1021,256,28,0.170047161167545,1
1022,254,28,0.147686272102705,1
1022,255,28,0.201146920740465,1
1022,256,28,0.188153256882942,1
1023,254,28,0.164500751788034,1
1023,255,28,0.206587079232589,1
1024,254,28,0.156249443543069,1
1006,228,29,0.133858382146874,1
1007,226,29,0.124508751577747,1
1007,227,29,0.14788835135084,1
1007,228,29,0.169725770487343,1
1008,226,29,0.139667957379804,1
1008,227,29,0.177551027041663,1
1008,239,29,0.168771973865909,1
1008,240,29,0.139841642603388,1
1009,226,29,0.12308640055534,1
1009,227,29,0.167382762945155,1
1009,230,29,0.165301119395849,1
1009,240,29,0.179010793168174,1
1009,241,29,0.182694950239914,1
1010,227,29,0.120207463160314,1
1010,228,29,0.133120608583225,1
1010,229,29,0.127965579800093,1
1010,233,29,0.123231256010324,1
1010,246,29,0.192384802698391,1
1010,247,29,0.135631978205449,1
1011,247,29,0.135025516700586,1
1012,242,29,0.175582594507703,1
1012,247,29,0.148987168303384,1
1013,237,29,0.144725061519994,1
1013,247,29,0.182888938780929,1
1013,248,29,0.124178033619467,1
1014,238,29,0.116001025623729,1
1014,239,29,0.172228166137477,1
1014,247,29,0.167930658094113,1
1014,248,29,0.1186428829241,1
1015,240,29,0.149741146835005,1
1015,242,29,0.155747819701642,1
1015,243,29,0.161095117603315,1
1015,246,29,0.145846855138609,1
1015,247,29,0.121994508400156,1
1015,252,29,0.129160813956698,1
1015,253,29,0.123277115127535,1
1016,253,29,0.115500520584596,1
1017,252,29,0.113782452450431,1
1017,253,29,0.134402449814298,1
1017,254,29,0.131027941887101,1
1017,255,29,0.11898581349269,1
1017,256,29,0.127769459646285,1
1018,252,29,0.141028020556567,1
1018,253,29,0.174348378923781,1
1018,254,29,0.166008897281136,1
1018,255,29,0.140246837463889,1
1018,256,29,0.158120634492331,1
1018,257,29,0.206632679258743,1
1018,258,29,0.197457134326654,2
1019,252,29,0.132797569141746,1
1019,253,29,0.154364450106552,1
1019,254,29,0.148046220243039,1
1019,255,29,0.134751892989929,1
1019,256,29,0.160616847287679,1
1019,257,29,0.218688421710549,1
1019,258,29,0.222083268285775,2
1020,254,29,0.116635845822543,1
1020,255,29,0.136649617218871,1
1020,256,29,0.16504132172618,1
1020,257,29,0.19239620270493,1
1020,258,29,0.194425686513576,1
1021,254,29,0.122742092093398,1
1021,255,29,0.185843730971528,1
1021,256,29,0.207358204881483,1
1021,257,29,0.180305577175265,1
1022,254,29,0.148210425089285,1
1022,255,29,0.231582347287726,1
1022,256,29,0.233630344330131,1
1022,257,29,0.173237372914659,1
1023,213,29,0.125869556697085,1
1023,214,29,0.130416463437211,1
1023,254,29,0.165699836979907,1
1023,255,29,0.229263270337777,1
1023,256,29,0.213390409994169,1
1024,214,29,0.114904175407849,1
1024,254,29,0.160758299228314,1
1024,255,29,0.197188244916233,1
1006,228,30,0.134482285190666,1
1007,226,30,0.126212051521623,1
1007,227,30,0.15696608940865,1
1008,226,30,0.154632597574399,1
1008,240,30,0.152950731527114,1
1009,226,30,0.159837301179411,1
1010,226,30,0.115125415617387,1
1010,227,30,0.149816989853712,1
1010,230,30,0.114051341860852,1
1010,233,30,0.125755721507827,1
1010,247,30,0.161752714261474,1
1010,248,30,0.118036350758039,1
1011,247,30,0.148052132229901,1
1011,248,30,0.120349244853203,1
1011,250,30,0.1153262111871,1
1012,242,30,0.194816631365903,1
1012,247,30,0.147734757461092,1
1012,248,30,0.118260299646816,1
1012,251,30,0.117959341829573,1
1013,237,30,0.131899488874583,1
1013,247,30,0.175336775978283,1
1013,248,30,0.126666108600231,1
1013,251,30,0.119965177690771,1
1013,252,30,0.116212161282016,1
1014,239,30,0.159184533036418,1
1014,242,30,0.194673495333393,1
1014,243,30,0.1980881388208,1
1014,246,30,0.205120906490834,1
1014,247,30,0.169022338265705,1
1014,248,30,0.126466667370138,1
1014,252,30,0.124824006510629,1
1014,253,30,0.123237509526307,1
1014,254,30,0.114404000120972,1
1015,240,30,0.127726839167295,1
1015,241,30,0.143219047639685,1
1015,242,30,0.127034371208143,1
1015,243,30,0.13214981794378,1
1015,244,30,0.168602104346992,1
1015,245,30,0.171195594057638,1
1015,246,30,0.139027024987401,1
1015,247,30,0.12087598875036,1
1015,252,30,0.125810790134453,1
1015,253,30,0.130391449373278,1
1015,254,30,0.128948594826715,1
1015,255,30,0.139147761420286,1
1015,256,30,0.135992173659974,1
1016,254,30,0.113924139928391,1
1016,255,30,0.130981034628792,1
1016,256,30,0.146759420951271,1
1017,253,30,0.114321632718358,1
1017,254,30,0.122879634114435,1
1017,255,30,0.130125091989102,1
1017,256,30,0.167840906596355,1
1017,257,30,0.228244995373576,2
1017,258,30,0.233424461154195,2
1017,259,30,0.169973649968358,1
1018,252,30,0.114983151072981,1
1018,253,30,0.14827324289391,1
1018,254,30,0.15270338200508,1
1018,255,30,0.144013679913631,1
1018,256,30,0.192919272219814,1
1018,257,30,0.300438033474376,2
1018,258,30,0.324080375133703,2
1018,259,30,0.227518056526885,2
1019,253,30,0.130769215912261,1
1019,254,30,0.132757374697205,1
1019,255,30,0.130503565140061,1
1019,256,30,0.178276811755461,1
1019,257,30,0.287565282702732,2
1019,258,30,0.3277282123499,2
1019,259,30,0.238918180834064,2
1020,255,30,0.132044650528089,1
1020,256,30,0.1783719099505,1
1020,257,30,0.240109858377059,1
1020,258,30,0.264593892667902,2
1020,259,30,0.212451817307075,1
1021,254,30,0.114417095996252,1
1021,255,30,0.187815013507123,1
1021,256,30,0.231579308856232,1
1021,257,30,0.225015872860344,1
1021,258,30,0.205214838776114,1
1022,254,30,0.137051962077737,1
1022,255,30,0.238092057219742,1
1022,256,30,0.27470433235108,1
1022,257,30,0.23050928634169,1
1022,258,30,0.17829378221974,1
1023,213,30,0.137216355353843,1
1023,214,30,0.123425597857326,1
1023,254,30,0.152090031033456,1
1023,255,30,0.23514397784291,1
1023,256,30,0.258809943895951,1
1023,257,30,0.221154426843944,1
1024,213,30,0.118197717379517,1
1024,254,30,0.150830177211688,1
1024,255,30,0.20305691646405,1
1024,256,30,0.208512337774845,1
1006,228,31,0.126782546476932,1
1007,226,31,0.125845626104847,1
1008,225,31,0.125373679966392,1
1008,240,31,0.168282621519123,1
1009,225,31,0.144158653137277,1
1010,226,31,0.136052353446556,1
1010,230,31,0.120054776089268,1
1010,233,31,0.127805367311508,1
1010,248,31,0.1601196044405,1
1010,249,31,0.148078783278244,1
1010,250,31,0.145591532678119,1
1011,247,31,0.181068494348376,1
1011,248,31,0.170017789663096,1
1011,249,31,0.165284843766679,1
1011,250,31,0.155812439366804,1
1011,251,31,0.145965565950498,1
1011,252,31,0.118075096648031,1
1012,246,31,0.18924822280022,1
1012,247,31,0.163544964876203,1
1012,248,31,0.149524829355563,1
1012,249,31,0.143349853293222,1
1012,250,31,0.141714176115403,1
1012,251,31,0.146892523093728,1
1012,252,31,0.129462207517993,1
1013,237,31,0.120441681476469,1
1013,242,31,0.220082190278546,1
1013,243,31,0.221420230715405,1
1013,247,31,0.170378785944527,1
1013,248,31,0.13530084805685,1
1013,249,31,0.114702461242569,1
1013,250,31,0.119501251598239,1
1013,251,31,0.145018270159239,1
1013,252,31,0.148353290253871,1
1013,253,31,0.133148166450271,1
1014,239,31,0.139828499620644,1
1014,241,31,0.189520645270519,1
1014,242,31,0.164352987447085,1
1014,243,31,0.170722034488506,1
1014,244,31,0.211480791130305,1
1014,246,31,0.191544217092303,1
1014,247,31,0.16082520360553,1
1014,248,31,0.128153267717659,1
1014,251,31,0.115641701657307,1
1014,252,31,0.139904083548293,1
1014,253,31,0.14829672596523,1
1014,254,31,0.135254882947842,1
1014,255,31,0.126082482439044,1
1014,256,31,0.123436821210871,1
1015,241,31,0.11445257969429,1
1015,244,31,0.136388865623035,1
1015,245,31,0.144218255857413,1
1015,246,31,0.120496538119502,1
1015,252,31,0.115337281441383,1
1015,253,31,0.132341886855595,1
1015,254,31,0.140110166930955,1
1015,255,31,0.159979259525294,1
1015,256,31,0.169833387491216,1
1015,257,31,0.157997212933939,1
1016,254,31,0.120691245049359,1
1016,255,31,0.154689786036952,1
1016,256,31,0.194131394402634,1
1016,257,31,0.223505984391036,2
1016,258,31,0.207581894679202,2
1016,259,31,0.14955698020045,1
1017,255,31,0.13567034723572,1
1017,256,31,0.199084343937632,2
1017,257,31,0.307310871300615,2
1017,258,31,0.343823891003124,2
1017,259,31,0.252871930159603,2
1017,260,31,0.148902045114066,1
1018,253,31,0.114984658511862,1
1018,254,31,0.125800779798133,1
1018,255,31,0.134421387015242,1
1018,256,31,0.201250321626218,2
1018,257,31,0.355217114066675,2
1018,258,31,0.442032568405457,2
1018,259,31,0.343145637721548,2
1018,260,31,0.201893738937401,2
1019,255,31,0.122938624437525,1
1019,256,31,0.178614913808884,2
1019,257,31,0.314199843433629,2
1019,258,31,0.408693673250751,2
1019,259,31,0.335177315795915,2
1019,260,31,0.217670099638884,2
1020,255,31,0.124016914312181,1
1020,256,31,0.177986064481263,1
1020,257,31,0.263239341064548,2
1020,258,31,0.313056286166167,2
1020,259,31,0.268760642165195,2
1020,260,31,0.208653141987835,1
1021,255,31,0.16781765906236,1
1021,256,31,0.230410125127791,1
1021,257,31,0.256932428769509,1
1021,258,31,0.24343345491142,2
1021,259,31,0.219306000577161,1
1022,254,31,0.120546660462299,1
1022,255,31,0.213937940060273,1
1022,256,31,0.289076231090004,1
1022,257,31,0.281997863393816,2
1022,258,31,0.226973023156428,1
1022,259,31,0.193327458404344,1
1023,212,31,0.129476245542574,1
1023,213,31,0.135093210127841,1
1023,254,31,0.130607024910145,1
1023,255,31,0.219816292192154,1
1023,256,31,0.290887701550467,1
1023,257,31,0.280077598242854,2
1023,258,31,0.216063640866254,1
1024,212,31,0.127271145104277,1
1024,213,31,0.127417837750396,1
1024,254,31,0.132073857156411,1
1024,255,31,0.197261709007955,1
1024,256,31,0.242304241867061,1
1024,257,31,0.228717883661332,1
1006,228,32,0.122284937698964,1
1007,226,32,0.129222512959028,1
1008,225,32,0.148545170735825,1
1009,225,32,0.171934027125797,1
1010,226,32,0.139602689986997,1
1010,230,32,0.128088648052497,1
1010,231,32,0.116590752201638,1
1010,232,32,0.118608847780612,1
1010,233,32,0.142710404785968,1
1010,249,32,0.189041256152588,1
1010,250,32,0.18204797631512,1
1010,251,32,0.164400024250923,1
1011,234,32,0.125095722368952,1
1011,250,32,0.19137855191464,1
1011,251,32,0.166628537099343,1
1011,252,32,0.132869137158001,1
1012,235,32,0.118468243774348,1
1012,247,32,0.185966999430659,1
1012,249,32,0.19093920414199,1
1012,250,32,0.170663209041543,1
1012,251,32,0.154992899020721,1
1012,252,32,0.133239790469764,1
1013,243,32,0.214554529670119,1
1013,244,32,0.219186300508506,1
1013,246,32,0.199712498430144,1
1013,247,32,0.173833729868272,1
1013,248,32,0.157968112297413,1
1013,249,32,0.143731965495855,1
1013,250,32,0.132876827451668,1
1013,251,32,0.140909981026055,1
1013,252,32,0.146226706182921,1
1013,253,32,0.138202962324674,1
1013,254,32,0.115939880134113,1
1014,240,32,0.148190604623372,1
1014,241,32,0.145551161580584,1
1014,242,32,0.135053227666893,1
1014,243,32,0.141641465743122,1
1014,244,32,0.165817158121577,1
1014,245,32,0.180388992718976,1
1014,246,32,0.164616907019945,1
1014,247,32,0.144100699178418,1
1014,248,32,0.127114018154652,1
1014,252,32,0.128395659178998,1
1014,253,32,0.143944643923622,1
1014,254,32,0.135685056541677,1
1014,255,32,0.130569974888895,1
1014,256,32,0.137723349446285,1
1015,253,32,0.115837562720057,1
1015,254,32,0.133867415003294,1
1015,255,32,0.163424675964236,1
1015,256,32,0.198691679662831,1
1015,257,32,0.212382757763334,1
1015,258,32,0.178185717694949,2
1016,254,32,0.118211072345855,1
1016,255,32,0.164842481116266,1
1016,256,32,0.234111052457083,1
1016,257,32,0.30321464167848,2
1016,258,32,0.293118240019883,2
1016,259,32,0.20556713195338,2
1017,255,32,0.131665070351701,1
1017,256,32,0.212432550353876,2
1017,257,32,0.36459095787283,2
1017,258,32,0.449384724688429,2
1017,259,32,0.353811238880165,2
1017,260,32,0.197053859095354,2
1018,255,32,0.11734460118773,1
1018,256,32,0.189639721165262,2
1018,257,32,0.366754156220979,2
1018,258,32,0.530843330087001,2
1018,259,32,0.476473589812125,2
1018,260,32,0.276448062276823,2
1018,261,32,0.134672234266554,1
1019,256,32,0.169392120089365,2
1019,257,32,0.311119816047233,2
1019,258,32,0.467368894507449,2
1019,259,32,0.454539930124555,2
1019,260,32,0.296119268187415,2
1019,261,32,0.157519719891476,2
1020,256,32,0.169715347960704,1
1020,257,32,0.270108857814502,2
1020,258,32,0.348658577247151,2
1020,259,32,0.33107135848225,2
1020,260,32,0.256505022739244,2
1020,261,32,0.166002007814375,1
1021,255,32,0.137948699782147,1
1021,256,32,0.220947483750044,1
1021,257,32,0.289038286026918,2
1021,258,32,0.286224250941843,2
1021,259,32,0.249793551534483,2
1021,260,32,0.220080517963537,1
1022,255,32,0.176005007146674,1
1022,256,32,0.288602353545482,2
1022,257,32,0.33122431642122,2
1022,258,32,0.281751444244217,2
1022,259,32,0.223321299574365,1
1023,211,32,0.120888554666659,1
1023,212,32,0.141503228886976,1
1023,213,32,0.121853315550579,1
1023,255,32,0.19184440941324,1
1023,256,32,0.306578467987981,2
1023,257,32,0.328238127105174,2
1023,258,32,0.267108065184295,2
1023,259,32,0.199628505819986,1
1024,211,32,0.132643621946011,1
1024,212,32,0.158830084692627,1
1024,213,32,0.132080051788063,1
1024,255,32,0.183507236036382,1
1024,256,32,0.270188139678156,1
1024,257,32,0.274039481143306,2
1024,258,32,0.217846729079033,1
1006,228,33,0.120923143322861,1
1007,226,33,0.130188168884784,1
1008,225,33,0.164132807155511,1
1009,224,33,0.121149200270698,1
1009,225,33,0.188906893885442,1
1010,226,33,0.13915593456547,1
1010,231,33,0.134294243967112,1
1010,232,33,0.12950717159337,1
1010,233,33,0.156132522814852,1
1010,250,33,0.192837352338118,1
1010,251,33,0.170257083808608,1
1011,251,33,0.173365281459095,1
1011,252,33,0.134201536475923,1
1012,250,33,0.191418275284531,1
1012,251,33,0.154069321838107,1
1012,252,33,0.124228662367514,1
1013,243,33,0.211464892360856,1
1013,244,33,0.198326714577471,1
1013,245,33,0.193277807136197,1
1013,246,33,0.191318595888517,1
1013,247,33,0.18673589925183,1
1013,249,33,0.175648627396816,1
1013,250,33,0.142592906991304,1
1013,251,33,0.128391631490737,1
1013,252,33,0.12806940465303,1
1013,253,33,0.127053791260604,1
1013,254,33,0.114581819024614,1
1014,240,33,0.122967666189719,1
1014,241,33,0.125369522732602,1
1014,242,33,0.124785696364689,1
1014,243,33,0.13030563134885,1
1014,244,33,0.139134865751733,1
1014,245,33,0.146565903484907,1
1014,246,33,0.140530412626534,1
1014,247,33,0.127632659567823,1
1014,248,33,0.122302885643143,1
1014,253,33,0.125576748471292,1
1014,254,33,0.124129536484213,1
1014,255,33,0.129748444252413,1
1014,256,33,0.147823861231206,1
1014,257,33,0.157095658491229,1
1014,258,33,0.140062553060671,1
1015,254,33,0.120694354142051,1
1015,255,33,0.158605052332154,1
1015,256,33,0.219469227943508,1
1015,257,33,0.266570851653034,2
1015,258,33,0.234895085551396,2
1015,259,33,0.157121108299214,1
1016,255,33,0.159120160685448,1
1016,256,33,0.249707391980934,2
1016,257,33,0.360016116405938,2
1016,258,33,0.370978494594277,2
1016,259,33,0.25999257680566,2
1016,260,33,0.149101768988949,1
1017,255,33,0.118010865619455,1
1017,256,33,0.199494838387949,2
1017,257,33,0.364615901275567,2
1017,258,33,0.494554518364327,2
1017,259,33,0.418565042548876,2
1017,260,33,0.232218392280632,2
1017,261,33,0.119395200917578,1
1018,256,33,0.161376478715104,2
1018,257,33,0.324405322427516,2
1018,258,33,0.536342420017884,2
1018,259,33,0.547085654278879,2
1018,260,33,0.322937500924484,2
1018,261,33,0.151233181575064,2
1019,256,33,0.148850403555521,1
1019,257,33,0.272763528345363,2
1019,258,33,0.466863337192691,2
1019,259,33,0.534773976969537,2
1019,260,33,0.355977734750866,2
1019,261,33,0.178017791358965,2
1020,256,33,0.152795630198485,1
1020,257,33,0.24628187844597,2
1020,258,33,0.348025052503625,2
1020,259,33,0.382553552472864,2
1020,260,33,0.298490540208624,2
1020,261,33,0.182123819333827,2
1021,255,33,0.114052236902688,1
1021,256,33,0.198859452899554,1
1021,257,33,0.291000123515773,2
1021,258,33,0.303932064817234,2
1021,259,33,0.265690036271806,2
1021,260,33,0.225404391678221,2
1022,255,33,0.138309448749386,1
1022,256,33,0.260177426498458,2
1022,257,33,0.347514501797574,2
1022,258,33,0.317647662353287,2
1022,259,33,0.236541114594656,2
1022,260,33,0.180487694635091,1
1023,210,33,0.12317649358222,1
1023,211,33,0.149055215036627,1
1023,212,33,0.149760884862855,1
1023,255,33,0.159664510997662,1
1023,256,33,0.291864969466354,2
1023,257,33,0.346161716724158,2
1023,258,33,0.30181540864454,2
1023,259,33,0.219305977023428,2
1024,211,33,0.174945678026695,1
1024,212,33,0.188660604281371,1
1024,213,33,0.134445824012729,1
1024,255,33,0.166315849523305,1
1024,256,33,0.281004673154746,1
1024,257,33,0.303642071262477,2
1024,258,33,0.249918810284012,2
1006,228,34,0.116266299536208,1
1007,226,34,0.129530218920638,1
1008,225,34,0.163254688676656,1
1009,224,34,0.120978353271882,1
1009,225,34,0.177880143346132,1
1009,226,34,0.223894550316378,1
1010,226,34,0.121243038341048,1
1010,227,34,0.129382713670747,1
1010,231,34,0.150810509845036,1
1010,232,34,0.140240383741179,1
1010,233,34,0.163190657854807,1
1010,251,34,0.168818563148829,1
1010,252,34,0.138135857740732,1
1011,241,34,0.175407884696754,1
1011,251,34,0.171880960566435,1
1011,252,34,0.131681133997279,1
1012,244,34,0.205733633288547,1
1012,245,34,0.19503469182155,1
1012,251,34,0.151278157427307,1
1012,252,34,0.118016330085399,1
1013,240,34,0.187481092241222,1
1013,241,34,0.198731273487193,1
1013,243,34,0.205452425276019,1
1013,244,34,0.185690101751182,1
1013,245,34,0.180007033615604,1
1013,246,34,0.198578527531817,1
1013,250,34,0.154921083690274,1
1013,251,34,0.121050498354583,1
1013,253,34,0.114398359002034,1
1014,241,34,0.116422507890265,1
1014,242,34,0.120671671897637,1
1014,243,34,0.124443001333424,1
1014,244,34,0.125413108914626,1
1014,245,34,0.127694735429873,1
1014,246,34,0.127347541635697,1
1014,247,34,0.122201828353776,1
1014,248,34,0.122016142503473,1
1014,255,34,0.120365072961455,1
1014,256,34,0.147198992484381,1
1014,257,34,0.167544918616672,1
1014,258,34,0.156839535203833,1
1015,255,34,0.143929769741537,1
1015,256,34,0.219697204520545,1
1015,257,34,0.294944737761693,2
1015,258,34,0.282143872981692,2
1015,259,34,0.186909231169427,2
1016,255,34,0.136739133179304,1
1016,256,34,0.229190771949087,2
1016,257,34,0.361021907891904,2
1016,258,34,0.408501050826223,2
1016,259,34,0.296676054870398,2
1016,260,34,0.168018796161194,2
1017,256,34,0.165326227674712,2
1017,257,34,0.309893302533845,2
1017,258,34,0.461480131625794,2
1017,259,34,0.424979854492578,2
1017,260,34,0.251935080448716,2
1017,261,34,0.130507180638003,1
1018,256,34,0.1273214676538,1
1018,257,34,0.25587627940342,2
1018,258,34,0.462900233266745,2
1018,259,34,0.521660247960506,2
1018,260,34,0.32755082919031,2
1018,261,34,0.161095941983953,2
1019,256,34,0.118139527883333,1
1019,257,34,0.217500206566234,2
1019,258,34,0.407679920603194,2
1019,259,34,0.524500498349873,2
1019,260,34,0.362120453976525,2
1019,261,34,0.182315534939654,2
1020,256,34,0.122356517492085,1
1020,257,34,0.197882750273247,2
1020,258,34,0.304217041426964,2
1020,259,34,0.380753882432392,2
1020,260,34,0.300875708932018,2
1020,261,34,0.17891350447601,2
1021,256,34,0.156077995924074,1
1021,257,34,0.247378610893187,1
1021,258,34,0.27749241122292,2
1021,259,34,0.253877745199302,2
1021,260,34,0.213456831519869,2
1022,210,34,0.117197884987878,1
1022,256,34,0.199089054684135,1
1022,257,34,0.304940894734695,2
1022,258,34,0.305662439776639,2
1022,259,34,0.229039863184847,2
1022,260,34,0.179753100825332,1
1023,210,34,0.159162957817432,1
1023,211,34,0.176374306118817,1
1023,212,34,0.148226641834123,1
1023,255,34,0.122416179096552,1
1023,256,34,0.237648846634958,2
1023,257,34,0.317623566884922,2
1023,258,34,0.300672840633844,2
1023,259,34,0.220747065040052,1
1023,260,34,0.16223463540565,1
1024,211,34,0.214871068281423,1
1024,212,34,0.201173936871663,1
1024,255,34,0.137942116513908,1
1024,256,34,0.252960397978939,1
1024,257,34,0.301535943608219,2
1024,258,34,0.261917387826998,1
1024,259,34,0.182328100855952,1
1005,229,35,0.129078670314543,1
1006,228,35,0.115141432155499,1
1007,226,35,0.130051616120514,1
1007,227,35,0.143539378401924,1
1008,225,35,0.155269325625547,1
1008,226,35,0.208563567143071,1
1009,221,35,0.133687864900313,1
1009,222,35,0.145142645643798,1
1009,223,35,0.119720913707698,1
1009,224,35,0.117315076584019,1
1009,225,35,0.159263520478416,1
1009,226,35,0.19326174349062,1
1009,227,35,0.194832671457747,1
1010,221,35,0.130423152697246,1
1010,222,35,0.128660497347426,1
1010,228,35,0.122337957150861,1
1010,232,35,0.163698641204014,1
1010,241,35,0.136996021963008,1
1010,250,35,0.177128649733292,1
1010,251,35,0.157372450178909,1
1010,252,35,0.143991822049855,1
1011,232,35,0.114152210720359,1
1011,233,35,0.130032949787494,1
1011,241,35,0.167920117798811,1
1011,242,35,0.177589384295068,1
1011,251,35,0.159413145564234,1
1011,252,35,0.130937542661698,1
1011,253,35,0.118472224355144,1
1012,241,35,0.236422003369314,1
1012,243,35,0.235779433992502,1
1012,244,35,0.211119971501868,1
1012,251,35,0.14815022174897,1
1012,252,35,0.120554704061954,1
1012,253,35,0.114456972465404,1
1013,240,35,0.18383962630967,1
1013,241,35,0.202665123677352,1
1013,242,35,0.216715019339028,1
1013,243,35,0.210789324204786,1
1013,244,35,0.193040326628088,1
1013,245,35,0.191163164807633,1
1013,250,35,0.160179124722572,1
1013,251,35,0.122104716314606,1
1013,253,35,0.117643168301123,1
1014,241,35,0.118443641900733,1
1014,242,35,0.124901710274204,1
1014,243,35,0.126707987136647,1
1014,244,35,0.124601600391331,1
1014,245,35,0.12364502442946,1
1014,246,35,0.126230953391968,1
1014,255,35,0.118793261729358,1
1014,256,35,0.151778909780631,1
1014,257,35,0.179802987630804,2
1014,258,35,0.171473810746136,2
1014,259,35,0.134461239930662,1
1015,255,35,0.136420875145527,1
1015,256,35,0.223190717681288,2
1015,257,35,0.319193588033347,2
1015,258,35,0.324587557656004,2
1015,259,35,0.216234570303134,2
1015,260,35,0.128296380196436,1
1016,255,35,0.120491992249126,1
1016,256,35,0.210667339424077,2
1016,257,35,0.349724713395827,2
1016,258,35,0.426775920811974,2
1016,259,35,0.325279896069626,2
1016,260,35,0.180944154194416,2
1017,256,35,0.140926633514945,1
1017,257,35,0.258830482750707,2
1017,258,35,0.407824163661132,2
1017,259,35,0.411300930118054,2
1017,260,35,0.266576928516023,2
1017,261,35,0.139399951234352,1
1018,257,35,0.202517889295384,2
1018,258,35,0.38184267727175,2
1018,259,35,0.474106062834386,2
1018,260,35,0.336544256662574,2
1018,261,35,0.173947105759745,2
1019,257,35,0.172393901976337,2
1019,258,35,0.335518703595025,2
1019,259,35,0.468863331728225,2
1019,260,35,0.353341671668694,2
1019,261,35,0.184850611393656,2
1020,257,35,0.153303448671565,1
1020,258,35,0.246072956838539,2
1020,259,35,0.336839644022077,2
1020,260,35,0.279057839393505,2
1020,261,35,0.169599027852666,1
1021,256,35,0.116842836023908,1
1021,257,35,0.187648194196568,1
1021,258,35,0.231385296761484,1
1021,259,35,0.232583357365992,2
1021,260,35,0.200401280230156,1
1022,209,35,0.116516522613609,1
1022,210,35,0.133785188923075,1
1022,211,35,0.118335671590873,1
1022,256,35,0.141624919246028,1
1022,257,35,0.237896749669706,1
1022,258,35,0.270742194128168,2
1022,259,35,0.22708605751878,1
1022,260,35,0.188053023974214,1
1023,210,35,0.200427848840436,1
1023,211,35,0.206973737305598,1
1023,212,35,0.147671044614632,1
1023,256,35,0.183050399617337,1
1023,257,35,0.274025914193376,2
1023,258,35,0.282420629338774,1
1023,259,35,0.225284573840904,1
1023,260,35,0.175255409609301,1
1024,210,35,0.218166824303947,1
1024,211,35,0.252998060397235,1
1024,212,35,0.203190065713972,1
1024,256,35,0.215663604273175,1
1024,257,35,0.287042672485632,1
1024,258,35,0.262731263500411,1
1024,259,35,0.190595814275616,1
1006,228,36,0.118440532808041,1
1006,229,36,0.149101474567292,1
1007,226,36,0.12658845194412,1
1007,227,36,0.141563797310145,1
1007,228,36,0.156723909930904,1
1008,225,36,0.13858903155437,1
1008,226,36,0.189657704440039,1
1008,227,36,0.196254551405503,1
1009,221,36,0.151233134467599,1
1009,222,36,0.152223969333417,1
1009,223,36,0.116738740303046,1
1009,225,36,0.132901853292468,1
1009,226,36,0.160444622395511,1
1009,227,36,0.163067483610606,1
1009,228,36,0.182796148851675,1
1009,240,36,0.161552060014157,1
1009,248,36,0.174025374812901,1
1010,221,36,0.139557431489965,1
1010,222,36,0.123926538640511,1
1010,229,36,0.148355103891274,1
1010,241,36,0.136310243263892,1
1010,250,36,0.147942100968445,1
1010,251,36,0.136723646600174,1
1010,252,36,0.143662375993131,1
1010,253,36,0.153136629361009,1
1011,230,36,0.124869064800935,1
1011,231,36,0.159997289907537,1
1011,232,36,0.169354704985261,1
1011,241,36,0.160262022084168,1
1011,242,36,0.160819586040325,1
1011,251,36,0.14152399150219,1
1011,252,36,0.13151293679337,1
1011,253,36,0.138836333968939,1
1011,254,36,0.137467131943958,1
1012,233,36,0.123400206933672,1
1012,234,36,0.134975005721202,1
1012,241,36,0.228428855809608,1
1012,242,36,0.239059856535157,1
1012,243,36,0.231579662162219,1
1012,251,36,0.141877085506361,1
1012,252,36,0.126040227042907,1
1012,253,36,0.126525351494706,1
1012,254,36,0.120767417820321,1
1013,240,36,0.177587912186786,1
1013,241,36,0.200696714697124,1
1013,242,36,0.219200338533087,1
1013,243,36,0.221780437946797,1
1013,244,36,0.22012892088386,1
1013,250,36,0.150749058156898,1
1013,251,36,0.120347289893404,1
1013,252,36,0.120000107876095,1
1013,253,36,0.125624574325169,1
1013,254,36,0.118310304220951,1
1014,241,36,0.121072132457901,1
1014,242,36,0.131384674942946,1
1014,243,36,0.136159098962326,1
1014,244,36,0.134882404221809,1
1014,245,36,0.125958790012728,1
1014,246,36,0.121807350441571,1
1014,255,36,0.115942047077505,1
1014,256,36,0.147985946241526,1
1014,257,36,0.179137818447641,1
1014,258,36,0.174165755058706,2
1014,259,36,0.136287984986662,1
1015,255,36,0.122794958446034,1
1015,256,36,0.207188829990949,1
1015,257,36,0.312606739627337,2
1015,258,36,0.33890502371908,2
1015,259,36,0.232267666689058,2
1015,260,36,0.13297657750888,1
1016,256,36,0.181864893152261,2
1016,257,36,0.312132108363375,2
1016,258,36,0.4045959832972,2
1016,259,36,0.32597122167275,2
1016,260,36,0.181169292546685,2
1017,256,36,0.117644393095214,1
1017,257,36,0.206845016157389,2
1017,258,36,0.33210112766792,2
1017,259,36,0.367939168057672,2
1017,260,36,0.263736960771447,2
1017,261,36,0.141735598235128,1
1018,257,36,0.155458356105867,2
1018,258,36,0.298487996405512,2
1018,259,36,0.418251872121322,2
1018,260,36,0.346429334233023,2
1018,261,36,0.184544919276177,2
1019,257,36,0.131006413775579,1
1019,258,36,0.258579399962069,2
1019,259,36,0.392966681172625,2
1019,260,36,0.336909645715119,2
1019,261,36,0.184383340671106,2
1020,257,36,0.116039041348012,1
1020,258,36,0.188574951133071,1
1020,259,36,0.270493890679967,2
1020,260,36,0.241941090419105,2
1020,261,36,0.157181982920906,1
1021,257,36,0.135771946260934,1
1021,258,36,0.185163923143605,1
1021,259,36,0.208639739914033,1
1021,260,36,0.18722866688983,1
1022,209,36,0.121328397067692,1
1022,210,36,0.148651527615008,1
1022,211,36,0.126001693136508,1
1022,257,36,0.17149621034576,1
1022,258,36,0.221755188345538,1
1022,259,36,0.218529575338451,1
1022,260,36,0.188732831802137,1
1023,209,36,0.165637407811869,1
1023,210,36,0.239229843822737,1
1023,211,36,0.229703701582123,1
1023,212,36,0.138955504078611,1
1023,256,36,0.13483914779204,1
1023,257,36,0.217764361676419,1
1023,258,36,0.242772419408313,1
1023,259,36,0.216370122033772,1
1023,260,36,0.174857763720073,1
1024,209,36,0.174718337400435,1
1024,210,36,0.257724069719425,1
1024,211,36,0.275818376791697,1
1024,212,36,0.187247274338519,1
1024,256,36,0.16710494667011,1
1024,257,36,0.246986841660222,1
1024,258,36,0.240379642829316,1
1024,259,36,0.188473670083245,1
1006,228,37,0.127107140464757,1
1006,229,37,0.144109578935577,1
1006,230,37,0.157783486365074,1
1007,226,37,0.123861247693972,1
1007,227,37,0.146068766629524,1
1007,228,37,0.159873055745372,1
1007,229,37,0.174242599111044,1
1008,225,37,0.119235647933504,1
1008,226,37,0.165383427914131,1
1008,227,37,0.174666165882908,1
1008,228,37,0.17499731958524,1
1009,221,37,0.148408170450637,1
1009,222,37,0.138902249089389,1
1009,226,37,0.130609121192339,1
1009,227,37,0.135486463245955,1
1009,228,37,0.149954932288201,1
1009,229,37,0.186438804246719,1
1009,240,37,0.168032904846972,1
1009,241,37,0.155420387489049,1
1009,249,37,0.130418383066411,1
1010,221,37,0.137148885687047,1
1010,229,37,0.146830035041359,1
1010,241,37,0.139237136058324,1
1010,242,37,0.139125880002777,1
1010,246,37,0.132309842002504,1
1010,249,37,0.141706320945609,1
1010,250,37,0.119200552872053,1
1010,251,37,0.114404647848616,1
1010,252,37,0.133917254701301,1
1010,253,37,0.161194596792603,1
1011,230,37,0.14522961780112,1
1011,241,37,0.156519899276703,1
1011,242,37,0.148486816363513,1
1011,243,37,0.154656469282306,1
1011,250,37,0.147348122941816,1
1011,251,37,0.12522897761067,1
1011,252,37,0.128125756958079,1
1011,253,37,0.153607633350163,1
1011,254,37,0.153959820535633,1
1012,231,37,0.121869390973023,1
1012,232,37,0.164711510586602,1
1012,241,37,0.217009158350707,1
1012,242,37,0.225079067524688,1
1012,251,37,0.140609317630468,1
1012,252,37,0.130935611255632,1
1012,253,37,0.135260594727977,1
1012,254,37,0.127869386356491,1
1013,240,37,0.177333861627851,1
1013,241,37,0.209461812286362,1
1013,242,37,0.238928615137569,1
1013,243,37,0.253334525466249,1
1013,250,37,0.139541615158579,1
1013,251,37,0.122660077996772,1
1013,252,37,0.126726147064418,1
1013,253,37,0.130505779190918,1
1013,254,37,0.12006147712617,1
1014,241,37,0.139422774801162,1
1014,242,37,0.163993793026192,1
1014,243,37,0.171421910096534,1
1014,244,37,0.161424916966027,1
1014,245,37,0.135315557362807,1
1014,255,37,0.117797327480451,1
1014,256,37,0.146378545319595,1
1014,257,37,0.177710591802604,1
1014,258,37,0.173931159882831,2
1014,259,37,0.136675632316437,1
1015,256,37,0.193441588015258,1
1015,257,37,0.305357513155466,2
1015,258,37,0.33965217166827,2
1015,259,37,0.238431348736658,2
1015,260,37,0.138010834528528,1
1016,256,37,0.162768021455378,1
1016,257,37,0.286881400079084,2
1016,258,37,0.375407326473293,2
1016,259,37,0.311868871848758,2
1016,260,37,0.180896187018144,2
1017,257,37,0.174676435310286,1
1017,258,37,0.272447083948989,2
1017,259,37,0.32232241875352,2
1017,260,37,0.255609486275193,2
1017,261,37,0.1429395001653,1
1018,257,37,0.123769176153561,1
1018,258,37,0.234355940614068,2
1018,259,37,0.369203061344566,2
1018,260,37,0.352065718870751,2
1018,261,37,0.191503692895507,2
1019,258,37,0.198725314392866,2
1019,259,37,0.322994265419851,2
1019,260,37,0.317446113064134,2
1019,261,37,0.181923930582816,1
1020,258,37,0.151289298342788,1
1020,259,37,0.213429744727473,2
1020,260,37,0.207547482675994,1
1020,261,37,0.144885780413828,1
1021,258,37,0.155995204554274,1
1021,259,37,0.191202487764072,1
1021,260,37,0.17614390350733,1
1022,208,37,0.116095146338869,1
1022,209,37,0.120942528044723,1
1022,210,37,0.154280375058331,1
1022,211,37,0.129836264344105,1
1022,257,37,0.130883345523175,1
1022,258,37,0.187260959057112,1
1022,259,37,0.213013126306702,1
1022,260,37,0.186125339397509,1
1023,209,37,0.181784680916172,1
1023,210,37,0.268504189125543,1
1023,211,37,0.243961600255662,1
1023,212,37,0.127604135997744,1
1023,257,37,0.176960982488365,1
1023,258,37,0.214403456029751,1
1023,259,37,0.209842299281451,1
1023,260,37,0.170691449966832,1
1024,209,37,0.197815245275851,1
1024,210,37,0.28997471177062,1
1024,211,37,0.285626292334419,1
1024,212,37,0.164727703777708,1
1024,257,37,0.211018996650565,1
1024,258,37,0.221867092128729,1
1024,259,37,0.186314734960683,1
1006,228,38,0.125156761866771,1
1006,229,38,0.132697300902419,1
1007,226,38,0.117734603890756,1
1007,227,38,0.146384068669871,1
1007,228,38,0.158486635941922,1
1007,229,38,0.162206029397508,1
1007,230,38,0.15661544499266,1
1008,226,38,0.136785298495039,1
1008,227,38,0.154315846979502,1
1008,228,38,0.152668228059298,1
1008,229,38,0.160192314812782,1
1008,230,38,0.164272786987863,1
1009,221,38,0.128804198669516,1
1009,222,38,0.115745679609505,1
1009,227,38,0.117522384760773,1
1009,228,38,0.12752387665419,1
1009,229,38,0.157725885712202,1
1009,230,38,0.194913095677428,1
1009,240,38,0.16932681736596,1
1009,241,38,0.137084148253222,1
1010,220,38,0.11535709013043,1
1010,221,38,0.122480198141535,1
1010,229,38,0.142575830535228,1
1010,241,38,0.143306361326128,1
1010,242,38,0.126069233464502,1
1010,243,38,0.153193511625039,1
1010,245,38,0.131744729075076,1
1010,248,38,0.115791762487176,1
1010,252,38,0.121308093750262,1
1010,253,38,0.157622743917508,1
1011,230,38,0.159158565046317,1
1011,241,38,0.153089215697451,1
1011,242,38,0.135399420427436,1
1011,243,38,0.139298517085265,1
1011,244,38,0.150708793051159,1
1011,249,38,0.14600122630153,1
1011,250,38,0.122521181636116,1
1011,252,38,0.122662586469285,1
1011,253,38,0.157595598240781,1
1011,254,38,0.162535628553493,1
1012,231,38,0.155417231288891,1
1012,240,38,0.204473061077938,1
1012,241,38,0.198467542344194,1
1012,242,38,0.200036173822401,1
1012,243,38,0.206536014740491,1
1012,250,38,0.151450476534406,1
1012,251,38,0.136304979004674,1
1012,252,38,0.130414155171425,1
1012,253,38,0.13705044286199,1
1012,254,38,0.132145872693583,1
1013,232,38,0.137354721755518,1
1013,235,38,0.12126340054281,1
1013,238,38,0.117942230042899,1
1013,239,38,0.142841493084294,1
1013,240,38,0.174895131716712,1
1013,241,38,0.213202922283329,1
1013,242,38,0.251789094414572,1
1013,243,38,0.270590837843009,1
1013,244,38,0.269603017854954,1
1013,249,38,0.152081021730768,1
1013,250,38,0.125182046798628,1
1013,251,38,0.121760914257913,1
1013,252,38,0.124386260391789,1
1013,253,38,0.124841589371953,1
1013,254,38,0.115845535658514,1
1014,240,38,0.114780270997941,1
1014,241,38,0.158372741868333,1
1014,242,38,0.201910462087488,1
1014,243,38,0.206761070654697,1
1014,244,38,0.176604390754915,1
1014,245,38,0.132754230273914,1
1014,255,38,0.116255547257314,1
1014,256,38,0.141137168553054,1
1014,257,38,0.171108033057004,1
1014,258,38,0.167522672116309,1
1014,259,38,0.134084556863374,1
1015,242,38,0.126390683029036,1
1015,243,38,0.119204957420033,1
1015,256,38,0.177070342468444,1
1015,257,38,0.285152791649618,1
1015,258,38,0.312759626905108,2
1015,259,38,0.222708195916932,1
1015,260,38,0.139251762926218,1
1016,256,38,0.142085206286887,1
1016,257,38,0.256836871276685,2
1016,258,38,0.326026502282969,2
1016,259,38,0.271093191850145,2
1016,260,38,0.172487233641438,1
1017,257,38,0.147646536955948,1
1017,258,38,0.221026459415176,2
1017,259,38,0.267941466901965,2
1017,260,38,0.23196568428445,1
1017,261,38,0.138496759807232,1
1018,258,38,0.180167846724368,1
1018,259,38,0.304502559772543,2
1018,260,38,0.317277774537831,2
1018,261,38,0.181189725409644,1
1019,258,38,0.149562856856713,1
1019,259,38,0.250590350751821,2
1019,260,38,0.269604831492358,1
1019,261,38,0.166349366484678,1
1020,258,38,0.121936472003233,1
1020,259,38,0.167925217181901,1
1020,260,38,0.173579231788419,1
1020,261,38,0.131830664868166,1
1021,258,38,0.130253165409667,1
1021,259,38,0.165800140549833,1
1021,260,38,0.158248389937506,1
1022,208,38,0.115881796629725,1
1022,209,38,0.119097081325103,1
1022,210,38,0.15170606986282,1
1022,211,38,0.125752341547211,1
1022,258,38,0.156653696254269,1
1022,259,38,0.191875924307348,1
1022,260,38,0.170476357281481,1
1023,209,38,0.199397467257721,1
1023,210,38,0.283554670898299,1
1023,211,38,0.235804777808691,1
1023,257,38,0.144111581002841,1
1023,258,38,0.186372630035211,1
1023,259,38,0.191105434609233,1
1024,209,38,0.230811716267216,1
1024,210,38,0.315123079087121,1
1024,211,38,0.272390319453621,1
1024,212,38,0.137976634508913,1
1024,257,38,0.174659511953472,1
1024,258,38,0.201062362840727,1
1006,228,39,0.120615519799315,1
1007,226,39,0.118754951583419,1
1007,227,39,0.142832318905479,1
1007,228,39,0.147846908558475,1
1007,229,39,0.14453846885099,1
1007,230,39,0.136116325384074,1
1007,231,39,0.130458471519156,1
1008,226,39,0.114222824810447,1
1008,227,39,0.13286936091846,1
1008,228,39,0.130752775406964,1
1008,229,39,0.13207474042138,1
1008,230,39,0.136736919128448,1
1008,231,39,0.140774382187951,1
1008,232,39,0.14468245281787,1
1008,233,39,0.145327883973183,1
1008,234,39,0.151943173511209,1
1009,229,39,0.128628381833138,1
1009,230,39,0.163140994809794,1
1009,233,39,0.142646762600705,1
1009,240,39,0.162978686039015,1
1010,229,39,0.130706398107637,1
1010,241,39,0.145568120267996,1
1010,242,39,0.113949660397574,1
1010,243,39,0.122528919037248,1
1010,244,39,0.125886550715096,1
1011,241,39,0.153985129021223,1
1011,242,39,0.123849023306795,1
1011,243,39,0.122848331203919,1
1011,244,39,0.12620135812706,1
1011,245,39,0.122952803784501,1
1011,246,39,0.124838656932254,1
1011,247,39,0.130743624781881,1
1011,248,39,0.126259476962047,1
1011,252,39,0.119840342908428,1
1011,253,39,0.151977644398748,1
1012,230,39,0.142917359656734,1
1012,240,39,0.187342443194757,1
1012,241,39,0.174624770198009,1
1012,242,39,0.167786097060786,1
1012,243,39,0.171725070187768,1
1012,244,39,0.178381755410693,1
1012,249,39,0.138291017953691,1
1012,250,39,0.12540280415665,1
1012,251,39,0.129829692852733,1
1012,252,39,0.13219224999291,1
1012,253,39,0.13682530450972,1
1012,254,39,0.129251731364216,1
1013,231,39,0.14486222668131,1
1013,235,39,0.12929802622548,1
1013,239,39,0.133852046192827,1
1013,240,39,0.166476803954464,1
1013,241,39,0.205593064612882,1
1013,242,39,0.246554088932676,1
1013,243,39,0.257096833822482,1
1013,244,39,0.238057150588151,1
1013,245,39,0.202579976934301,1
1013,246,39,0.180363177828137,1
1013,247,39,0.17593148417062,1
1013,248,39,0.151804807109534,1
1013,249,39,0.119131799526834,1
1013,251,39,0.121837381450531,1
1013,252,39,0.124284072523261,1
1013,253,39,0.118164106203215,1
1014,240,39,0.123529387379665,1
1014,241,39,0.186546268151331,1
1014,242,39,0.248641420708385,1
1014,243,39,0.237737479330422,1
1014,244,39,0.180733996016027,1
1014,245,39,0.127424421018635,1
1014,256,39,0.126183728158271,1
1014,257,39,0.150617899197374,1
1014,258,39,0.148868704805687,1
1015,241,39,0.131524160146915,1
1015,242,39,0.170490960595642,1
1015,243,39,0.150719674875582,1
1015,256,39,0.154362989775136,1
1015,257,39,0.240690222346293,1
1015,258,39,0.255116341777472,1
1015,259,39,0.188305837962191,1
1016,256,39,0.123742419113421,1
1016,257,39,0.218564058002856,1
1016,258,39,0.262772694515909,2
1016,259,39,0.220556986418635,1
1016,260,39,0.162799665895015,1
1017,257,39,0.128724304408816,1
1017,258,39,0.181703820952439,1
1017,259,39,0.216776777225689,1
1017,260,39,0.200991630981977,1
1018,258,39,0.140461082214869,1
1018,259,39,0.230940743613947,1
1018,260,39,0.250179361673121,1
1018,261,39,0.155351657697562,1
1019,258,39,0.116274237144067,1
1019,259,39,0.185418279901063,1
1019,260,39,0.207006924514715,1
1020,259,39,0.13879298332424,1
1020,260,39,0.147014884734157,1
1021,258,39,0.114845962357932,1
1021,259,39,0.144553166380081,1
1021,260,39,0.141129525366852,1
1022,209,39,0.121898986237931,1
1022,210,39,0.145266467615643,1
1022,211,39,0.120246114835375,1
1022,258,39,0.137299170277375,1
1022,259,39,0.16772353834722,1
1023,208,39,0.148390528704981,1
1023,209,39,0.225776469990802,1
1023,210,39,0.286257697242018,1
1023,211,39,0.211481262204955,1
1023,257,39,0.12445456621609,1
1023,258,39,0.165436046952576,1
1024,208,39,0.178346707456707,1
1024,209,39,0.279826350578089,1
1024,210,39,0.336165418428761,1
1024,211,39,0.243070350570928,1
1024,257,39,0.15516008341413,1
1006,227,40,0.114095905522776,1
1007,226,40,0.116265310279442,1
1007,227,40,0.132519953073428,1
1007,228,40,0.129463267435957,1
1007,230,40,0.116494429212507,1
1008,227,40,0.115203920207868,1
1008,230,40,0.115088707125258,1
1008,231,40,0.118469916089357,1
1008,232,40,0.123691119083997,1
1008,233,40,0.129221264611205,1
1009,230,40,0.132289856660463,1
1009,231,40,0.14493037940635,1
1009,232,40,0.137723596760476,1
1009,233,40,0.13304482444885,1
1009,234,40,0.139117706857594,1
1010,229,40,0.118169806206484,1
1010,230,40,0.172604389906981,1
1010,241,40,0.140001419347922,1
1011,224,40,0.121123267611196,1
1011,225,40,0.13117280911895,1
1011,229,40,0.118787161312636,1
1011,241,40,0.156748971102302,1
1011,242,40,0.117307280298556,1
1012,237,40,0.126610780882547,1
1012,240,40,0.173468835444109,1
1012,241,40,0.157673619979746,1
1012,242,40,0.144680015006554,1
1012,243,40,0.141217310127945,1
1012,244,40,0.136024136075,1
1012,245,40,0.131547525449572,1
1012,246,40,0.13097423937696,1
1012,247,40,0.12781319892757,1
1012,248,40,0.114450542296427,1
1012,251,40,0.113779885093587,1
1012,252,40,0.123908708464995,1
1012,253,40,0.126216291193476,1
1013,230,40,0.114380905686238,1
1013,235,40,0.123590921505867,1
1013,239,40,0.129970744379915,1
1013,240,40,0.157412032226405,1
1013,241,40,0.195318113884935,1
1013,242,40,0.23509392616131,1
1013,243,40,0.229668512305742,1
1013,244,40,0.190278133308285,1
1013,245,40,0.153939941185388,1
1013,246,40,0.136525253511178,1
1013,247,40,0.127474731791292,1
1013,252,40,0.113848414678347,1
1014,240,40,0.135315498478476,1
1014,241,40,0.21642332991553,1
1014,242,40,0.292469687995011,1
1014,243,40,0.260622827580366,1
1014,244,40,0.176007068098269,1
1014,245,40,0.118288988093023,1
1014,257,40,0.129933376383275,1
1014,258,40,0.130685176194638,1
1015,241,40,0.162313163549864,1
1015,242,40,0.216408255526718,1
1015,243,40,0.183697868170513,1
1015,244,40,0.119770941835565,1
1015,256,40,0.130108180409155,1
1015,257,40,0.188798593823326,1
1015,258,40,0.194096264010584,1
1015,259,40,0.153976861661109,1
1016,242,40,0.124751355022678,1
1016,257,40,0.177884347687386,1
1016,258,40,0.202322982158801,1
1016,259,40,0.177864574328938,1
1017,258,40,0.148713049964344,1
1017,259,40,0.173072602778832,1
1017,260,40,0.168270326470749,1
1018,241,40,0.115313916138725,1
1018,259,40,0.165495037275666,1
1018,260,40,0.179602780904405,1
1019,259,40,0.132545438212012,1
1019,260,40,0.147604740857595,1
1020,260,40,0.12036049176048,1
1021,259,40,0.118850638621771,1
1021,260,40,0.120091625903792,1
1022,209,40,0.117973368077287,1
1022,210,40,0.128496410269842,1
1022,258,40,0.113894862638872,1
1022,259,40,0.135130743000608,1
1023,208,40,0.14553751219259,1
1023,209,40,0.233104342375548,1
1023,210,40,0.257115582593566,1
1023,211,40,0.169031206245998,1
1023,258,40,0.140341629460406,1
1024,208,40,0.181109642719084,1
1024,209,40,0.307740938902654,1
1024,210,40,0.325789693056237,1
1024,211,40,0.198704657769448,1
1007,227,41,0.120264180548216,1
1008,232,41,0.116070049836872,1
1009,231,41,0.122894343420392,1
1009,232,41,0.130734733247855,1
1009,233,41,0.133674592372039,1
1009,234,41,0.133176866673343,1
1010,224,41,0.117113480187401,1
1010,225,41,0.133048781475913,1
1010,226,41,0.116431175663831,1
1010,230,41,0.147249079496579,1
1011,224,41,0.152977099930667,1
1011,225,41,0.175471962626068,1
1011,226,41,0.134399058076815,1
1011,229,41,0.123035288955777,1
1011,241,41,0.155620346901257,1
1011,242,41,0.117637962926237,1
1012,225,41,0.131570737652969,1
1012,229,41,0.116733287613968,1
1012,236,41,0.14446166012925,1
1012,237,41,0.123693792432638,1
1012,240,41,0.160790532511264,1
1012,241,41,0.143265731137535,1
1012,242,41,0.129399860788019,1
1012,243,41,0.118523277070375,1
1012,252,41,0.114910146279043,1
1012,253,41,0.116357181613127,1
1013,230,41,0.126205715567576,1
1013,235,41,0.120322216945139,1
1013,239,41,0.123781730292992,1
1013,240,41,0.141545766927903,1
1013,241,41,0.170804955403834,1
1013,242,41,0.199576098765134,1
1013,243,41,0.183424303344187,1
1013,244,41,0.139988488348769,1
1014,232,41,0.116593366665947,1
1014,240,41,0.137935968989721,1
1014,241,41,0.216352197643327,1
1014,242,41,0.28099207190785,1
1014,243,41,0.240184759246465,1
1014,244,41,0.155480308184573,1
1014,257,41,0.123140067734882,1
1015,241,41,0.171263263931161,1
1015,242,41,0.219844792208501,1
1015,243,41,0.184561289120277,1
1015,244,41,0.12118360049704,1
1015,257,41,0.148930274262488,1
1015,258,41,0.149695134618532,1
1016,241,41,0.123613332882358,1
1016,242,41,0.13522104801108,1
1016,243,41,0.115278020250369,1
1016,257,41,0.147799459564318,1
1016,258,41,0.160411329194597,1
1016,259,41,0.154370456308344,1
1017,240,41,0.123423124715412,1
1017,241,41,0.139989654258529,1
1017,242,41,0.115913134870839,1
1017,258,41,0.130307197672062,1
1017,259,41,0.14653875780818,1
1017,260,41,0.14284093957158,1
1018,240,41,0.142595945422798,1
1018,241,41,0.16701976459646,1
1018,242,41,0.11906202159425,1
1018,259,41,0.12280132973068,1
1018,260,41,0.128049501749053,1
1023,209,41,0.227760589310619,1
1023,210,41,0.219589304871882,1
1023,211,41,0.133851363134583,1
1024,208,41,0.176840387377875,1
1024,209,41,0.311349959567663,1
1024,210,41,0.294094353802877,1
1024,211,41,0.161278330311703,1
1009,232,42,0.132461975560836,1
1009,233,42,0.155033340779453,1
1010,224,42,0.130538707308978,1
1010,225,42,0.161439108089869,1
1010,226,42,0.143266390642046,1
1010,230,42,0.128057722001702,1
1011,224,42,0.169099300086706,1
1011,225,42,0.211201891383564,1
1011,226,42,0.170903633766216,1
1011,227,42,0.120962313180037,1
1011,229,42,0.1288171532224,1
1012,224,42,0.121718776630439,1
1012,225,42,0.151193729073097,1
1012,226,42,0.132010850921926,1
1012,229,42,0.128936511761933,1
1012,236,42,0.133862551157529,1
1012,237,42,0.120836948438713,1
1012,240,42,0.141309475883286,1
1012,241,42,0.124953917122329,1
1012,242,42,0.11746365352874,1
1013,230,42,0.132113356765843,1
1013,233,42,0.162561455221198,1
1013,234,42,0.131937009970483,1
1013,235,42,0.115652783688456,1
1013,240,42,0.121055385754081,1
1013,241,42,0.138838877772051,1
1013,242,42,0.155597087590396,1
1013,243,42,0.140651843894529,1
1014,240,42,0.129466718057771,1
1014,241,42,0.187534064585654,1
1014,242,42,0.226847434654644,1
1014,243,42,0.194020456322477,1
1014,244,42,0.130370298121477,1
1014,257,42,0.119048054230867,1
1015,241,42,0.163125908644116,1
1015,242,42,0.193194709567875,1
1015,243,42,0.164664827088752,1
1015,244,42,0.114412868101265,1
1015,257,42,0.12241624975775,1
1015,258,42,0.123320183127444,1
1016,240,42,0.115748918247727,1
1016,241,42,0.152676872279132,1
1016,242,42,0.150729696988768,1
1016,243,42,0.118491079118024,1
1016,257,42,0.123114653257495,1
1016,258,42,0.131288705259803,1
1016,259,42,0.137115274510744,1
1017,240,42,0.157438318191895,1
1017,241,42,0.211776673118191,1
1017,242,42,0.172832472475815,1
1017,258,42,0.1163117817937,1
1017,259,42,0.125450995093381,1
1018,240,42,0.169636855147089,1
1018,241,42,0.234688849069472,1
1018,242,42,0.176716459414234,1
1019,241,42,0.139328194788237,1
1023,209,42,0.197399898756636,1
1023,210,42,0.175936265578321,1
1024,208,42,0.158515501041122,1
1024,209,42,0.270091993342019,1
1024,210,42,0.237071144237499,1
1010,224,43,0.133002015539999,1
1010,225,43,0.170913985631658,1
1010,226,43,0.157521392206484,1
1010,227,43,0.11818502191769,1
1010,231,43,0.141303834764348,1
1011,224,43,0.161667214212435,1
1011,225,43,0.212152425813044,1
1011,226,43,0.19194633819071,1
1011,227,43,0.142771173415863,1
1011,228,43,0.119024759589408,1
1011,229,43,0.135049859483143,1
1011,230,43,0.173118273466183,1
1012,224,43,0.121389495449843,1
1012,225,43,0.158498483469378,1
1012,226,43,0.157327321227406,1
1012,227,43,0.136577601681699,1
1012,228,43,0.121265025750354,1
1012,229,43,0.142415382509319,1
1012,230,43,0.193267938122272,1
1012,236,43,0.122613453383253,1
1012,237,43,0.117433763842175,1
1012,239,43,0.151574157183855,1
1012,240,43,0.122693312313354,1
1013,226,43,0.122451073951277,1
1013,227,43,0.125258054693463,1
1013,228,43,0.115135213970114,1
1013,229,43,0.121804900853389,1
1013,230,43,0.14278012383422,1
1013,231,43,0.165981044992434,1
1013,233,43,0.140872424599556,1
1013,234,43,0.122092244613238,1
1013,235,43,0.116032269649913,1
1013,241,43,0.113821999167328,1
1013,242,43,0.122239161019816,1
1014,241,43,0.147239740441636,1
1014,242,43,0.161436599617355,1
1014,243,43,0.140756010276588,1
1015,241,43,0.144633025310181,1
1015,242,43,0.155425475095272,1
1015,243,43,0.134998076602203,1
1015,257,43,0.114840462561389,1
1016,240,43,0.130139636418932,1
1016,241,43,0.181298143240423,1
1016,242,43,0.166273970986889,1
1016,243,43,0.120656821269284,1
1016,258,43,0.115455709608481,1
1017,240,43,0.178569372667062,1
1017,241,43,0.27520673346568,1
1017,242,43,0.227777736427892,1
1017,243,43,0.131342914175192,1
1018,240,43,0.169622734684445,1
1018,241,43,0.265983680655103,1
1018,242,43,0.216331894325896,1
1018,243,43,0.124820155475362,1
1019,241,43,0.140385828039475,1
1019,242,43,0.119194240471738,1
1023,210,43,0.141909942963223,1
1024,209,43,0.210913876342339,1
1009,225,44,0.120749363884346,1
1009,226,44,0.115112849701089,1
1010,224,44,0.133390110390691,1
1010,225,44,0.170273583198237,1
1010,226,44,0.162419049354397,1
1010,227,44,0.124803726746931,1
1010,231,44,0.128853025557025,1
1011,224,44,0.145344548238939,1
1011,225,44,0.19374749211633,1
1011,226,44,0.19593769481881,1
1011,227,44,0.157626253423653,1
1011,228,44,0.125095333732365,1
1011,229,44,0.130002848117336,1
1011,230,44,0.14714271084053,1
1011,231,44,0.17804604406112,1
1012,224,44,0.121216469730769,1
1012,225,44,0.169416721962979,1
1012,226,44,0.186851783615816,1
1012,227,44,0.162561584766727,1
1012,228,44,0.129850702782139,1
1012,229,44,0.141005821163669,1
1012,230,44,0.174023890927752,1
1012,231,44,0.19995215765851,1
1012,235,44,0.125948956329401,1
1012,236,44,0.114975955407697,1
1012,237,44,0.116208863759464,1
1013,225,44,0.143024270048631,1
1013,226,44,0.171816258463209,1
1013,227,44,0.163461254910835,1
1013,228,44,0.128420308160078,1
1013,229,44,0.125139991609218,1
1013,230,44,0.14763589066885,1
1013,231,44,0.157553625489435,1
1013,232,44,0.144027034879969,1
1013,233,44,0.121239022429654,1
1013,235,44,0.116729577901097,1
1014,226,44,0.13030380593458,1
1014,227,44,0.136958359544712,1
1014,228,44,0.120001273785855,1
1015,241,44,0.119737259998065,1
1015,242,44,0.119866699535115,1
1016,231,44,0.127022087936636,1
1016,232,44,0.135860567179532,1
1016,240,44,0.126721883838833,1
1016,241,44,0.183780435779853,1
1016,242,44,0.166184525687654,1
1016,243,44,0.116307389022585,1
1017,231,44,0.127739416860459,1
1017,232,44,0.146778711458203,1
1017,233,44,0.118141365074469,1
1017,240,44,0.170325507401572,1
1017,241,44,0.283127453297895,1
1017,242,44,0.242008383432908,1
1017,243,44,0.137909518148104,1
1018,212,44,0.127087343552576,1
1018,240,44,0.144798584496048,1
1018,241,44,0.240550902018451,1
1018,242,44,0.210074068009424,1
1018,243,44,0.127489311551721,1
1019,241,44,0.120853129852952,1
1009,224,45,0.124986798132924,1
1009,225,45,0.142304774181416,1
1009,226,45,0.126779013417054,1
1010,224,45,0.135122063450175,1
1010,225,45,0.163377639160398,1
1010,226,45,0.157042544824402,1
1010,227,45,0.125394654565199,1
1011,224,45,0.125513777567406,1
1011,225,45,0.164618438012559,1
1011,226,45,0.179834573186111,1
1011,227,45,0.158264959988332,1
1011,228,45,0.123722174680322,1
1011,229,45,0.117278674290413,1
1011,230,45,0.122409242522326,1
1011,231,45,0.138059343440648,1
1011,232,45,0.174415436400259,1
1012,224,45,0.119676244053978,1
1012,225,45,0.176756382990851,1
1012,226,45,0.203767626789036,1
1012,227,45,0.17600029640017,1
1012,228,45,0.131005954477795,1
1012,229,45,0.128390512688443,1
1012,230,45,0.147295645225767,1
1012,231,45,0.153771308237428,1
1012,232,45,0.149952400261955,1
1012,233,45,0.130178606069382,1
1012,234,45,0.114984505412601,1
1012,235,45,0.114176423957387,1
1013,224,45,0.119475601583527,1
1013,225,45,0.186552568774779,1
1013,227,45,0.19150723773225,1
1013,228,45,0.13507168201632,1
1013,229,45,0.120282081384929,1
1013,230,45,0.142549909652593,1
1013,231,45,0.144940754825524,1
1013,232,45,0.122865584312988,1
1014,225,45,0.149509342776433,1
1014,226,45,0.165329796065189,1
1014,227,45,0.159438065413238,1
1014,228,45,0.130870061218035,1
1014,229,45,0.115084149478016,1
1014,230,45,0.122652423033704,1
1014,231,45,0.119121341669596,1
1015,225,45,0.119398133357276,1
1015,226,45,0.118973848196571,1
1015,227,45,0.115616923130698,1
1015,228,45,0.116064938676915,1
1015,229,45,0.118992620521387,1
1015,230,45,0.123527773948988,1
1015,231,45,0.124643926448665,1
1015,232,45,0.12124473420979,1
1016,228,45,0.114252679166413,1
1016,229,45,0.121610700328782,1
1016,230,45,0.132650699842633,1
1016,231,45,0.158663347820135,1
1016,232,45,0.164886432381144,1
1016,233,45,0.124600670018897,1
1016,240,45,0.11594804150243,1
1016,241,45,0.1701533885012,1
1016,242,45,0.159657032687587,1
1017,228,45,0.114878725599864,1
1017,230,45,0.120816444914556,1
1017,231,45,0.165064510375843,1
1017,232,45,0.183522805053576,1
1017,233,45,0.133566987145032,1
1017,240,45,0.147814734159856,1
1017,241,45,0.247701909425723,1
1017,242,45,0.22535264412788,1
1017,243,45,0.138920750546282,1
1018,212,45,0.130504707496088,1
1018,232,45,0.119524181156844,1
1018,240,45,0.118374605910724,1
1018,241,45,0.191708563260945,1
1018,242,45,0.181069094968555,1
1018,243,45,0.123883517748067,1
1009,224,46,0.147440147374762,1
1010,224,46,0.134066726687858,1
1010,225,46,0.152675541493244,1
1011,225,46,0.144187270922286,1
1011,226,46,0.16220731307593,1
1011,228,46,0.116120996560307,1
1012,224,46,0.125965773694419,1
1012,225,46,0.186116035673164,1
1012,227,46,0.177023458763868,1
1012,228,46,0.128337269476087,1
1012,229,46,0.11412415822493,1
1012,230,46,0.123622954582091,1
1012,231,46,0.123853180540585,1
1012,232,46,0.118991678372087,1
1013,224,46,0.15187372533088,1
1013,228,46,0.136218348376474,1
1013,229,46,0.115552173920007,1
1013,230,46,0.134766366758561,1
1013,231,46,0.134274093748943,1
1014,224,46,0.141164043361856,1
1014,225,46,0.198969354615481,1
1014,227,46,0.172826878464342,1
1014,228,46,0.134296281364975,1
1014,229,46,0.120468615169602,1
1014,230,46,0.137283047747467,1
1014,231,46,0.133056024248662,1
1015,224,46,0.115327282881929,1
1015,225,46,0.142722099214163,1
1015,226,46,0.142203610900253,1
1015,227,46,0.139922043269337,1
1015,228,46,0.135993551553326,1
1015,229,46,0.133245396258103,1
1015,230,46,0.141739037080076,1
1015,231,46,0.145620809967638,1
1015,232,46,0.139385147713465,1
1015,233,46,0.119224872100877,1
1016,226,46,0.123116384456835,1
1016,227,46,0.14674378127288,1
1016,228,46,0.154377722634826,1
1016,229,46,0.146498798900964,1
1016,230,46,0.151935212349618,1
1016,231,46,0.186832139802897,1
1016,232,46,0.204701979804276,1
1016,233,46,0.157810726256731,1
1016,241,46,0.147743460565258,1
1016,242,46,0.148465052714667,1
1017,227,46,0.136941200650573,1
1017,228,46,0.140035913789194,1
1017,229,46,0.12701744785133,1
1017,230,46,0.135297032352182,1
1017,231,46,0.188974222229843,1
1017,232,46,0.21318692929895,1
1017,233,46,0.153216523621709,1
1017,240,46,0.120115014760182,1
1017,241,46,0.189753897883641,1
1017,242,46,0.185867119827918,1
1017,243,46,0.130999065011034,1
1018,212,46,0.116663756995576,1
1018,231,46,0.122771463597848,1
1018,232,46,0.136292801724962,1
1018,241,46,0.143572365404315,1
1018,242,46,0.144169193432579,1
1018,243,46,0.113887301890733,1
1010,224,47,0.129374646517359,1
1011,225,47,0.132911109909347,1
1012,224,47,0.130835790537222,1
1013,228,47,0.131124724174015,1
1013,230,47,0.123864710092652,1
1013,231,47,0.1231857501991,1
1014,224,47,0.168979988654638,1
1014,227,47,0.172480485497072,1
1014,228,47,0.129502390185668,1
1014,229,47,0.122940296752534,1
1014,230,47,0.147818702963785,1
1014,231,47,0.149521025427762,1
1014,232,47,0.115129243098921,1
1015,224,47,0.130767531820386,1
1015,225,47,0.153787289444941,1
1015,226,47,0.158720595167019,1
1015,227,47,0.16920776502495,1
1015,228,47,0.158282554626523,1
1015,229,47,0.141130114210165,1
1015,230,47,0.151834908779691,1
1015,231,47,0.161997802625186,1
1015,232,47,0.157683854076525,1
1015,233,47,0.131422019385852,1
1016,224,47,0.116891026960639,1
1016,225,47,0.118049352418389,1
1016,226,47,0.141517478895149,1
1016,227,47,0.204743905448157,1
1016,228,47,0.20820842396417,1
1016,229,47,0.166804483481249,1
1016,230,47,0.162276561049532,1
1016,231,47,0.199546609492022,1
1016,232,47,0.236999493783181,1
1016,233,47,0.191965946673031,1
1016,241,47,0.123443840223161,1
1016,242,47,0.135259664355543,1
1017,226,47,0.116698757842097,1
1017,227,47,0.157181700276116,1
1017,228,47,0.158658142445249,1
1017,229,47,0.135679085670484,1
1017,230,47,0.143522525706308,1
1017,231,47,0.191549763996311,1
1017,232,47,0.222282933276327,1
1017,233,47,0.166323092296055,1
1017,241,47,0.133852423052547,1
1017,242,47,0.141328295315568,1
1017,243,47,0.116156656911339,1
1018,231,47,0.135271535436732,1
1018,232,47,0.1459934182392,1
1012,224,48,0.131702014381155,1
1014,228,48,0.119780163121846,1
1014,229,48,0.118187129976751,1
1014,230,48,0.144873037844536,1
1015,224,48,0.1415593103241,1
1015,227,48,0.189202822980793,1
1015,228,48,0.173560282810608,1
1015,229,48,0.139182302969023,1
1015,230,48,0.145696299680357,1
1015,231,48,0.165150505053265,1
1015,232,48,0.165878786462709,1
1015,233,48,0.13638853587078,1
1016,224,48,0.127981254809083,1
1016,225,48,0.119284097961293,1
1016,226,48,0.150540042334537,1
1016,227,48,0.243801152229752,1
1016,228,48,0.243809560912261,1
1016,229,48,0.169329160962345,1
1016,230,48,0.151834861672226,1
1016,231,48,0.186990668199606,1
1016,232,48,0.236872586272376,1
1016,233,48,0.2003672686404,1
1017,226,48,0.114206655173073,1
1017,227,48,0.159576149170122,1
1017,228,48,0.161488794688614,1
1017,229,48,0.132040139988312,1
1017,230,48,0.138705952282588,1
1017,231,48,0.174866184179448,1
1017,232,48,0.204289459732963,1
1017,233,48,0.159946272522903,1
1018,231,48,0.135068019410914,1
1018,232,48,0.141506761946854,1
1012,224,49,0.131345764176827,1
1014,227,49,0.145743995988705,1
1015,224,49,0.151120606510497,1
1015,226,49,0.157873190755367,1
1015,227,49,0.182898713579923,1
1015,228,49,0.168564536143627,1
1015,229,49,0.127396415630671,1
1015,230,49,0.132168189855144,1
1016,224,49,0.126484285562061,1
1016,225,49,0.115565364010217,1
1016,226,49,0.138773233519524,1
1016,227,49,0.228482464104818,1
1016,228,49,0.229898278966451,1
1016,229,49,0.150589670048951,1
1016,230,49,0.131514715100175,1
1016,231,49,0.16411782698163,1
1016,232,49,0.207532973576763,1
1016,233,49,0.178116575713143,1
1017,227,49,0.138839607937759,1
1017,228,49,0.143461745299546,1
1017,229,49,0.11848444874232,1
1017,230,49,0.125392817374062,1
1017,231,49,0.151391886624768,1
1017,232,49,0.171345513565113,1
1017,233,49,0.139532299657369,1
1017,246,49,0.114497932406252,1
1017,247,49,0.120053233319788,1
1018,231,49,0.131634768474818,1
1018,232,49,0.133710323384268,1
1023,211,49,0.116414299414482,1
1023,212,49,0.120297815278251,1
1023,213,49,0.119011710821593,1
1023,214,49,0.114169251845835,1
1013,223,50,0.119668848181967,1
1013,224,50,0.185159789463549,1
1014,223,50,0.132846902434504,1
1014,224,50,0.20346557372323,1
1015,224,50,0.155058684595642,1
1015,225,50,0.154836478683071,1
1015,226,50,0.144357894160643,1
1015,227,50,0.163935697744937,1
1015,228,50,0.154791726591288,1
1015,229,50,0.117980834610495,1
1016,224,50,0.117124986185736,1
1016,226,50,0.121974982355899,1
1016,227,50,0.181478765038234,1
1016,228,50,0.185603482899849,1
1016,229,50,0.128347562457197,1
1016,230,50,0.114371719730557,1
1016,231,50,0.143102009142805,1
1016,232,50,0.165393120275062,1
1017,227,50,0.117367153886616,1
1017,228,50,0.124948994392233,1
1017,231,50,0.131576720301028,1
1017,232,50,0.137724185603789,1
1018,231,50,0.124767925073504,1
1018,232,50,0.121667099741295,1
1021,212,50,0.114235166966286,1
1021,213,50,0.119274334939164,1
1022,212,50,0.11850380991045,1
1022,213,50,0.124539489198682,1
1022,214,50,0.119413784812534,1
1023,211,50,0.116740424394921,1
1023,212,50,0.12393560682753,1
1023,213,50,0.127463838190003,1
1023,214,50,0.123189719003029,1
1014,223,51,0.146398059586986,1
1014,224,51,0.186037001123701,1
1015,224,51,0.147361937205938,1
1015,225,51,0.142844696391917,1
1015,226,51,0.12962707186875,1
1016,227,51,0.136018742270254,1
1016,228,51,0.141577270045145,1
1016,229,51,0.114071645178282,1
1017,228,51,0.117906181055281,1
1021,212,51,0.119364239536184,1
1021,213,51,0.122309480688248,1
1022,211,51,0.115149346209625,1
1022,212,51,0.126125032256837,1
1022,213,51,0.130478810167185,1
1022,214,51,0.121044774797582,1
1023,211,51,0.119000546352379,1
1023,212,51,0.130551661861862,1
1023,213,51,0.135614795757577,1
1023,214,51,0.128648908911027,1
1023,215,51,0.11583141519587,1
1024,212,51,0.11455689917561,1
1024,213,51,0.114222789479848,1
1021,212,52,0.122900867804299,1
1021,213,52,0.131717512737152,1
1021,214,52,0.123080771213269,1
1022,212,52,0.131088262996078,1
1022,213,52,0.14159453493108,1
1022,214,52,0.133517182777624,1
1022,215,52,0.11503918540264,1
1023,212,52,0.130717362370124,1
1023,213,52,0.142443576327142,1
1023,214,52,0.13682291380587,1
1023,215,52,0.11790341349171,1
1024,213,52,0.117469718614863,1
1021,212,53,0.119062480892035,1
1021,213,53,0.127594714504737,1
1021,214,53,0.118643212676355,1
1022,212,53,0.127277787256847,1
1022,213,53,0.137625801663063,1
1022,214,53,0.128767973028904,1
1023,212,53,0.125605707785422,1
1023,213,53,0.138962511314035,1
1023,214,53,0.133186629695472,1
1024,213,53,0.114894695030511,1
1021,213,54,0.119640701471609,1
1022,212,54,0.118219551689561,1
1022,213,54,0.127514773136572,1
1022,214,54,0.117021443977589,1
1023,213,54,0.125408315730059,1
1023,214,54,0.118799256154284,1
