x,y,z,signal,mito.p
804,1021,13,0.130895310819294,1
804,1022,13,0.150121539615164,1
805,1021,13,0.118228949628836,1
805,1022,13,0.128760506495695,1
806,1018,13,0.142570483837947,1
806,1019,13,0.116871618685044,1
807,1018,13,0.146731356678976,1
804,1019,14,0.115919388386823,1
804,1020,14,0.114628844051585,1
804,1021,14,0.1645431367297,1
804,1022,14,0.180423381168452,1
805,1018,14,0.121659798084215,1
805,1019,14,0.119316142814383,1
805,1020,14,0.118151610948114,1
805,1021,14,0.163093439823841,1
805,1022,14,0.169127152375408,1
806,1017,14,0.127869445240822,1
806,1018,14,0.170334033852743,1
806,1019,14,0.135820184305131,1
807,1017,14,0.141796272650094,1
807,1018,14,0.189539323380405,1
807,1019,14,0.141212328513517,1
808,1018,14,0.129879991848524,1
804,1018,15,0.115078496582212,1
804,1019,15,0.119418825311293,1
804,1020,15,0.114174468997588,1
804,1021,15,0.166868467195633,1
804,1022,15,0.174480774454262,1
805,1018,15,0.128161747061366,1
805,1019,15,0.12159716870945,1
805,1020,15,0.124069227152102,1
805,1021,15,0.181109513173556,1
805,1022,15,0.177073851974589,1
806,1017,15,0.141955896295365,1
806,1018,15,0.174585023274385,1
806,1019,15,0.136813056568811,1
806,1021,15,0.119544508028007,1
807,1017,15,0.15744019071363,1
807,1018,15,0.202313230913539,1
807,1019,15,0.15127046713364,1
808,1017,15,0.123223765923383,1
808,1018,15,0.147847956699572,1
808,1019,15,0.116116073830211,1
809,1017,15,0.120773176707921,1
809,1018,15,0.139664871840844,1
810,1017,15,0.121236937924326,1
810,1018,15,0.145188434099813,1
804,1018,16,0.125686897501411,1
804,1019,16,0.115865980298339,1
804,1021,16,0.145817436526695,1
804,1022,16,0.144871942595974,1
805,1017,16,0.132040328418172,1
805,1018,16,0.145006693499707,1
805,1019,16,0.123067110048409,1
805,1020,16,0.122151399812456,1
805,1021,16,0.171107785742813,1
805,1022,16,0.156021455189165,1
806,1017,16,0.161269332785882,1
806,1018,16,0.180704094552596,1
806,1019,16,0.137070251551037,1
806,1020,16,0.115780468472434,1
806,1021,16,0.119929258248682,1
807,1017,16,0.170844808319254,1
807,1018,16,0.208370779842414,1
807,1019,16,0.154182591737784,1
808,1017,16,0.146802524281778,1
808,1018,16,0.178906002612203,1
808,1019,16,0.13695273020264,1
809,1017,16,0.14361053422786,1
809,1018,16,0.178253128477414,1
809,1019,16,0.125277557183987,1
810,1017,16,0.143044243613806,1
810,1018,16,0.18602501227385,1
810,1019,16,0.120284896055965,1
811,1015,16,0.118617291793719,1
811,1018,16,0.118289788919929,1
804,1017,17,0.120159119124321,1
804,1018,17,0.131924644260912,1
805,1017,17,0.162519812222107,1
805,1018,17,0.166456689066894,1
805,1019,17,0.127238699837734,1
805,1020,17,0.120428055642207,1
805,1021,17,0.142767875893311,1
805,1022,17,0.118329724273412,1
806,1016,17,0.119979686790002,1
806,1017,17,0.182726736001946,1
806,1018,17,0.187529742475737,1
806,1019,17,0.140731267080578,1
806,1020,17,0.123717440380086,1
807,1016,17,0.124348279998104,1
807,1017,17,0.18528170358306,1
807,1018,17,0.210524062069173,1
807,1019,17,0.151569528875416,1
808,1016,17,0.119018882933144,1
808,1017,17,0.174315497913186,1
808,1018,17,0.213056512282,1
808,1019,17,0.149560795905118,1
809,1017,17,0.154066094976752,1
809,1018,17,0.202003122471212,1
809,1019,17,0.133708297763272,1
810,1015,17,0.127611920506341,1
810,1017,17,0.142743156251033,1
810,1018,17,0.19666986259412,1
810,1019,17,0.125174274066898,1
811,1015,17,0.147853491826714,1
811,1018,17,0.126838027293877,1
804,1017,18,0.129877459822279,1
804,1018,18,0.130201229429465,1
805,1016,18,0.1307209307606,1
805,1017,18,0.200451732325208,1
805,1018,18,0.184521424427991,1
805,1019,18,0.124424747190723,1
806,1016,18,0.154204084518706,1
806,1017,18,0.213194160294832,1
806,1018,18,0.18892849265816,1
806,1019,18,0.134383842365609,1
807,1016,18,0.159303420501301,1
807,1017,18,0.210962137940268,1
807,1018,18,0.206040020241136,1
807,1019,18,0.13510269050518,1
808,1016,18,0.139121239917471,1
808,1017,18,0.203592269250442,1
808,1018,18,0.23097753454414,1
808,1019,18,0.138793407291425,1
809,1017,18,0.15137412711045,1
809,1018,18,0.193389569596993,1
809,1019,18,0.114329511441885,1
810,1014,18,0.113902411610144,1
810,1015,18,0.141641748387912,1
810,1017,18,0.116764107672968,1
810,1018,18,0.159910435518878,1
811,1014,18,0.138054055627698,1
811,1015,18,0.177163426819354,1
811,1016,18,0.117155617814875,1
812,1015,18,0.133736939102013,1
825,1012,18,0.147455480854631,1
825,1013,18,0.131187106234588,1
826,1013,18,0.155426664558765,1
827,1013,18,0.125201879041408,1
839,1011,18,0.16329547196451,1
840,1011,18,0.156949672457085,1
841,1012,18,0.177976972740512,1
804,1017,19,0.120634280347265,1
804,1018,19,0.113874241346052,1
805,1016,19,0.146305304988332,1
805,1017,19,0.207163886588213,1
805,1018,19,0.175218995538829,1
805,1019,19,0.114444453656571,1
806,1015,19,0.127318040585719,1
806,1016,19,0.193457027486923,1
806,1017,19,0.223366192988544,1
806,1018,19,0.17223067460999,1
806,1019,19,0.123336270326753,1
807,1015,19,0.151925873294674,1
807,1016,19,0.207062558430922,1
807,1017,19,0.226760992456305,1
807,1018,19,0.187395615745915,1
807,1019,19,0.11432483602598,1
808,1015,19,0.123053366445485,1
808,1016,19,0.165149044721849,1
808,1017,19,0.227025171120222,1
808,1018,19,0.230139115881443,1
808,1019,19,0.118019450954958,1
809,1017,19,0.147837275081875,1
809,1018,19,0.174053497969527,1
810,1014,19,0.12401877505705,1
810,1015,19,0.140561562437789,1
810,1018,19,0.116107241180517,1
811,1014,19,0.175222846574095,1
811,1015,19,0.200446456289125,1
811,1016,19,0.118028212943454,1
812,1014,19,0.156422539923341,1
812,1015,19,0.170606974505157,1
823,1011,19,0.122699966242791,1
824,1011,19,0.138096381685032,1
824,1012,19,0.142317340097714,1
825,1011,19,0.159698663909812,1
825,1012,19,0.19025680540349,1
825,1013,19,0.152397901871193,1
826,1011,19,0.184000015451249,1
826,1012,19,0.229994307533925,1
826,1013,19,0.186873794578854,1
827,1012,19,0.196917765628867,1
827,1013,19,0.163234526681621,1
828,1013,19,0.115381421136121,1
838,1010,19,0.211104897113057,1
838,1011,19,0.214501580879419,1
839,1010,19,0.229651765601922,2
839,1011,19,0.261809841484322,2
839,1012,19,0.204196139844728,1
840,1010,19,0.189498222117162,1
840,1011,19,0.261079793544939,2
840,1012,19,0.240068003394376,2
841,1011,19,0.244761579226889,2
841,1012,19,0.274594901709803,2
841,1013,19,0.194553406628152,1
842,1011,19,0.203186603315291,1
842,1012,19,0.249248635932689,2
802,1018,20,0.119297582473159,1
805,1016,20,0.133809025300383,1
805,1017,20,0.167063315447885,1
805,1018,20,0.134559965400509,1
806,1015,20,0.146035767850267,1
806,1016,20,0.198527015518801,1
806,1017,20,0.188292329896593,1
806,1018,20,0.132298547987762,1
807,1014,20,0.115734032288776,1
807,1015,20,0.193395140054733,1
807,1016,20,0.225657335211728,1
807,1017,20,0.197682119579662,1
807,1018,20,0.143617517909552,1
808,1015,20,0.154134012164466,1
808,1016,20,0.170591947223811,1
808,1017,20,0.199313945722214,1
808,1018,20,0.185338256094834,1
809,1017,20,0.120547520173536,1
809,1018,20,0.132660804393883,1
810,1014,20,0.118947420908686,1
810,1015,20,0.120071970314006,1
811,1014,20,0.191259534904229,1
811,1015,20,0.192950056948214,1
812,1014,20,0.192633082592859,1
812,1015,20,0.181888823744499,1
813,1014,20,0.11823778227853,1
814,1012,20,0.132240641136368,1
814,1013,20,0.149207336818092,1
815,1013,20,0.123530188206571,1
822,1011,20,0.127203322131492,1
823,1010,20,0.14603981909226,1
823,1011,20,0.174058668013815,1
823,1012,20,0.145955850035835,1
824,1010,20,0.147426344887507,1
824,1011,20,0.187453063299526,1
824,1012,20,0.183092796335868,1
824,1013,20,0.12573984629211,1
825,1010,20,0.144979559599847,1
825,1011,20,0.213803495355063,1
825,1012,20,0.244267492579868,1
825,1013,20,0.176077693965223,1
826,1010,20,0.154935027499925,1
826,1011,20,0.252038175135945,1
826,1012,20,0.300248590803737,3
826,1013,20,0.218810265168863,1
827,1011,20,0.232626625572627,1
827,1012,20,0.274113840276864,3
827,1013,20,0.206134635584659,1
828,1012,20,0.191746437662833,1
828,1013,20,0.160497135442159,1
828,1015,20,0.125129368875853,1
828,1016,20,0.158283108139237,1
829,1013,20,0.13371843764512,1
829,1014,20,0.116786483718859,1
829,1015,20,0.13785812390375,1
829,1016,20,0.162865592792332,1
832,1017,20,0.125542666220339,1
832,1018,20,0.118614465345817,1
837,1010,20,0.169111347820889,1
837,1011,20,0.163429374933873,1
837,1013,20,0.212059553445727,1
837,1014,20,0.208563378713211,1
838,1009,20,0.183940459838578,1
838,1010,20,0.28592829829276,2
838,1011,20,0.277005908877769,2
838,1012,20,0.217939672107547,1
838,1013,20,0.217156863807325,1
838,1014,20,0.197283343111273,1
839,1009,20,0.183080489510628,2
839,1010,20,0.320168217931193,2
839,1011,20,0.35730524666929,2
839,1012,20,0.273022737171719,2
839,1013,20,0.194324016827163,1
840,1009,20,0.133954316499418,1
840,1010,20,0.266812206750142,2
840,1011,20,0.373443910884359,2
840,1012,20,0.338577721052015,2
840,1013,20,0.216084533026997,2
841,1010,20,0.202031999347279,2
841,1011,20,0.353158800489428,2
841,1012,20,0.381550563881067,2
841,1013,20,0.252589191154462,2
841,1014,20,0.132555401440867,1
842,1010,20,0.154041528433736,1
842,1011,20,0.289411942439577,2
842,1012,20,0.33178715641346,2
842,1013,20,0.228241815619686,2
843,1011,20,0.188703660504414,1
843,1012,20,0.209245447699455,2
802,1018,21,0.13190774445783,1
805,1016,21,0.114589733078739,1
805,1017,21,0.119741122810198,1
806,1015,21,0.152793804784215,1
806,1016,21,0.180004136506505,1
806,1017,21,0.142749692411807,1
807,1014,21,0.139791543814323,1
807,1015,21,0.222237545233766,1
807,1016,21,0.220464090497586,1
807,1017,21,0.155793360843465,1
808,1014,21,0.140718901371006,1
808,1015,21,0.185158976859777,1
808,1016,21,0.167419836520138,1
808,1017,21,0.152636418743533,1
808,1018,21,0.127783533001464,1
811,1014,21,0.183871847815754,1
811,1015,21,0.163197300007377,1
812,1013,21,0.121509584155084,1
812,1014,21,0.201326423735982,1
812,1015,21,0.166703861935934,1
813,1013,21,0.11946599166066,1
813,1014,21,0.12152577734619,1
814,1012,21,0.162484446292732,1
814,1013,21,0.178697493195091,1
815,1012,21,0.148154744065614,1
815,1013,21,0.156524751345601,1
822,1010,21,0.154940798164392,1
822,1011,21,0.155967163835712,1
822,1012,21,0.118115090885846,1
823,1009,21,0.15817966014602,1
823,1010,21,0.211034730543887,1
823,1011,21,0.214855923231414,1
823,1012,21,0.165103503580026,1
824,1009,21,0.18193710889616,1
824,1010,21,0.202631559608514,1
824,1011,21,0.228001120027089,1
824,1012,21,0.2092614877913,1
824,1013,21,0.138864798654686,1
825,1008,21,0.157072198973641,1
825,1009,21,0.166245188325753,1
825,1010,21,0.183091901294033,1
825,1011,21,0.256713661701885,1
825,1012,21,0.277302897891084,3
825,1013,21,0.184530845920998,1
826,1010,21,0.183016176043989,1
826,1011,21,0.29931539192139,3
826,1012,21,0.336327161909959,3
826,1013,21,0.222884919572012,3
827,1010,21,0.173814851551659,1
827,1011,21,0.2903602628182,3
827,1012,21,0.328907736166916,3
827,1013,21,0.226047455683417,3
827,1014,21,0.117660374302727,1
827,1016,21,0.114099956764769,1
828,1011,21,0.21704950589451,1
828,1012,21,0.255812260358437,3
828,1013,21,0.197093099613728,1
828,1014,21,0.126767142335865,1
828,1015,21,0.145881938423194,1
828,1016,21,0.193881230209565,1
828,1017,21,0.125419762844062,1
829,1012,21,0.193798697930823,1
829,1013,21,0.179461635162293,1
829,1014,21,0.138910763763694,1
829,1015,21,0.167010861285568,1
829,1016,21,0.209114347624262,1
829,1017,21,0.132694604000046,1
830,1012,21,0.177759501128177,1
830,1013,21,0.173824273044666,1
830,1014,21,0.126064887800853,1
830,1015,21,0.116103943657964,1
830,1016,21,0.133818281917263,1
832,1017,21,0.140270049667285,1
833,1017,21,0.185464527654861,1
833,1018,21,0.14679402138434,1
836,1013,21,0.167047534447098,1
836,1014,21,0.162788301219075,1
837,1010,21,0.16652784489283,1
837,1011,21,0.16081037653091,1
837,1012,21,0.183741548567467,1
837,1013,21,0.27647863502163,2
837,1014,21,0.267470957541194,1
837,1015,21,0.139851358518052,1
838,1009,21,0.191097944522292,1
838,1010,21,0.308333739242657,2
838,1011,21,0.29374307343611,2
838,1012,21,0.252319665793263,2
838,1013,21,0.295409382243067,2
838,1014,21,0.267944952854378,2
838,1015,21,0.144456066117777,1
839,1009,21,0.19949999665537,2
839,1010,21,0.359662857525639,2
839,1011,21,0.399979969905867,2
839,1012,21,0.327138497548857,2
839,1013,21,0.268254660883252,2
839,1014,21,0.19881441816298,1
840,1009,21,0.150149957193447,2
840,1010,21,0.308438341368768,2
840,1011,21,0.448324571187812,2
840,1012,21,0.423160846837709,2
840,1013,21,0.285562838579016,2
840,1014,21,0.163918585958263,2
841,1010,21,0.241992084250005,2
841,1011,21,0.444990351920086,2
841,1012,21,0.476571149372213,2
841,1013,21,0.309526618026011,2
841,1014,21,0.15880555348021,2
842,1010,21,0.191360933722717,2
842,1011,21,0.3775717260618,2
842,1012,21,0.417798227233033,2
842,1013,21,0.273685892510752,2
842,1014,21,0.143074180407836,1
843,1010,21,0.143967491044164,1
843,1011,21,0.264541367844388,2
843,1012,21,0.284803419135184,2
843,1013,21,0.192522073851504,1
844,1011,21,0.146751612888942,1
844,1012,21,0.154107584876582,1
802,1018,22,0.123617937637065,1
806,1015,22,0.136760955712482,1
806,1016,22,0.140427800790821,1
807,1014,22,0.133812428814732,1
807,1015,22,0.199986616769184,1
807,1016,22,0.173896418127367,1
808,1014,22,0.13612704233237,1
808,1015,22,0.169817794920289,1
808,1016,22,0.134021197322902,1
811,1014,22,0.142620394197152,1
811,1015,22,0.114226122332999,1
812,1014,22,0.164305891758916,1
812,1015,22,0.122209718854169,1
814,1012,22,0.148542721147643,1
814,1013,22,0.160056715974678,1
815,1012,22,0.139178522594954,1
815,1013,22,0.142834556510068,1
822,1009,22,0.139471201275218,1
822,1010,22,0.204290284113601,1
822,1011,22,0.166774534910353,1
823,1008,22,0.132641243019027,1
823,1009,22,0.207596191794841,1
823,1010,22,0.270630384559907,1
823,1011,22,0.226900147908019,1
823,1012,22,0.147197791244022,1
824,1007,22,0.146166196644083,1
824,1008,22,0.205200847858999,1
824,1009,22,0.237901507523675,1
824,1010,22,0.246283527207246,1
824,1011,22,0.240445616834098,1
824,1012,22,0.194834108235431,1
824,1013,22,0.121595861477296,1
825,1006,22,0.138029253547357,1
825,1007,22,0.18799508179222,1
825,1008,22,0.237106474836276,4
825,1009,22,0.219657775572311,1
825,1010,22,0.215446839272815,1
825,1011,22,0.280126990419943,3
825,1012,22,0.273983211276321,3
825,1013,22,0.164045776113858,1
826,1006,22,0.140214133106288,1
826,1007,22,0.173902659866484,1
826,1008,22,0.192567826976919,1
826,1009,22,0.171603391605582,1
826,1010,22,0.203615092817252,3
826,1011,22,0.320672291360802,3
826,1012,22,0.331891263911188,3
826,1013,22,0.197305460066107,3
827,1010,22,0.193693966259184,3
827,1011,22,0.322761460327648,3
827,1012,22,0.34689400226813,3
827,1013,22,0.215562393884547,3
828,1010,22,0.164452254652781,1
828,1011,22,0.258027159149462,3
828,1012,22,0.297854071248533,3
828,1013,22,0.212484910301263,1
828,1014,22,0.128851329688283,1
828,1015,22,0.150072642066458,1
828,1016,22,0.200235885920417,1
828,1017,22,0.117859827309686,1
829,1011,22,0.187390198387436,1
829,1012,22,0.243243093645212,1
829,1013,22,0.215480615325245,1
829,1014,22,0.150787650947628,1
829,1015,22,0.172061923893368,1
829,1016,22,0.221888832223843,1
829,1017,22,0.133769596352149,1
830,1011,22,0.170526620946674,1
830,1012,22,0.240034321556875,1
830,1013,22,0.225119344407293,1
830,1014,22,0.147558928847848,1
830,1015,22,0.121560672200914,1
830,1016,22,0.142562122262903,1
830,1017,22,0.113983401119405,1
831,1012,22,0.198023059857854,1
831,1017,22,0.118959374427939,1
832,1016,22,0.120649613827134,1
832,1017,22,0.138399953966585,1
833,1016,22,0.135893895711044,1
833,1017,22,0.17205502264974,1
833,1018,22,0.116223160875102,1
836,1013,22,0.173243237794055,2
836,1014,22,0.16318142479166,1
837,1010,22,0.143490162877829,1
837,1011,22,0.151303807442018,2
837,1012,22,0.205684570863713,2
837,1013,22,0.329753762685216,2
837,1014,22,0.303849673860887,2
837,1015,22,0.147985640043003,1
838,1009,22,0.172455942507789,1
838,1010,22,0.29254461241815,2
838,1011,22,0.290666508448394,2
838,1012,22,0.302103776991753,2
838,1013,22,0.395277184563939,2
838,1014,22,0.336814606404411,2
838,1015,22,0.162913654183534,2
839,1009,22,0.197326057805193,2
839,1010,22,0.368474968364982,2
839,1011,22,0.415461508537427,2
839,1012,22,0.395347139149516,2
839,1013,22,0.376708552426228,2
839,1014,22,0.265699669748406,2
839,1015,22,0.135933701518999,1
840,1009,22,0.15223947946628,2
840,1010,22,0.321370423992623,2
840,1011,22,0.479152450026281,2
840,1012,22,0.489080866464563,2
840,1013,22,0.359719716235936,2
840,1014,22,0.202924921347021,2
841,1010,22,0.25475575768636,2
841,1011,22,0.494278091759501,2
841,1012,22,0.543020232938877,2
841,1013,22,0.351859388173897,2
841,1014,22,0.175603898858765,2
842,1010,22,0.210293117721838,2
842,1011,22,0.44334969312784,2
842,1012,22,0.492842020687903,2
842,1013,22,0.305980862686544,2
842,1014,22,0.152800906234569,2
843,1010,22,0.171904337645959,2
843,1011,22,0.342808725131616,2
843,1012,22,0.368001467680181,2
843,1013,22,0.226449612112422,2
843,1014,22,0.126851664905004,1
844,1011,22,0.203609298599052,2
844,1012,22,0.212176568388875,2
844,1013,22,0.141034380064347,1
846,1016,22,0.14132265419663,1
847,1016,22,0.150288146942127,1
847,1017,22,0.167030469767889,1
847,1018,22,0.166672405926157,1
848,1018,22,0.186576381598354,1
848,1019,22,0.213803330478935,1
798,1023,23,0.118025951785133,1
799,1023,23,0.150810910258489,1
799,1024,23,0.171806106804494,1
800,1024,23,0.11992142663262,1
807,1015,23,0.155490718934346,1
807,1016,23,0.125152863724039,1
808,1014,23,0.116467530849972,1
808,1015,23,0.13889462945692,1
812,1014,23,0.119873530117545,1
814,1012,23,0.118742856741771,1
814,1013,23,0.120533128842968,1
815,1012,23,0.114881528494034,1
822,1009,23,0.160339407872355,1
822,1010,23,0.218515089792952,1
822,1011,23,0.150779324703183,1
823,1007,23,0.129421082701018,1
823,1008,23,0.160063994078026,1
823,1009,23,0.242126528955216,1
823,1010,23,0.299601993738664,1
823,1011,23,0.212170750616943,1
823,1012,23,0.123656306667336,1
824,1006,23,0.174588473896199,1
824,1007,23,0.229161447552103,4
824,1008,23,0.258479908995915,4
824,1009,23,0.275815338360202,1
824,1010,23,0.284621231014161,1
824,1011,23,0.246107227519352,1
824,1012,23,0.172462042924511,1
825,1005,23,0.160115211669386,1
825,1006,23,0.22094126556466,4
825,1007,23,0.305641453400966,4
825,1008,23,0.322466214290539,4
825,1009,23,0.271712066172045,4
825,1010,23,0.268132063705498,4
825,1011,23,0.306565536988829,3
825,1012,23,0.250502707313123,1
825,1013,23,0.137280280183896,1
826,1005,23,0.160940558010535,1
826,1006,23,0.205883670564684,1
826,1007,23,0.275391960018199,4
826,1008,23,0.275462197248566,4
826,1009,23,0.220435849572297,1
826,1010,23,0.238191100664978,3
826,1011,23,0.327940360818686,3
826,1012,23,0.294970505545067,3
826,1013,23,0.159764060848147,1
827,1006,23,0.163561428935233,1
827,1007,23,0.193930280857533,1
827,1008,23,0.193421991309803,1
827,1009,23,0.177458555087799,1
827,1010,23,0.215393772713453,3
827,1011,23,0.320514410691736,3
827,1012,23,0.315015791835504,3
827,1013,23,0.182534937958055,3
828,1004,23,0.164239505563816,1
828,1010,23,0.195240421898225,1
828,1011,23,0.271652922749693,3
828,1012,23,0.295085188668695,3
828,1013,23,0.203192868608141,1
828,1014,23,0.125963406544301,1
828,1015,23,0.138398128552315,1
828,1016,23,0.167349752389032,1
829,1003,23,0.149797758231111,1
829,1004,23,0.178869729864126,1
829,1005,23,0.16261713624487,1
829,1010,23,0.164937367327713,1
829,1011,23,0.21186554135098,1
829,1012,23,0.271592248334728,1
829,1013,23,0.234845316514586,1
829,1014,23,0.152043771502791,1
829,1015,23,0.15257623895695,1
829,1016,23,0.189507879147494,1
829,1017,23,0.114190144006578,1
830,1004,23,0.156343823349267,1
830,1011,23,0.201857913710241,1
830,1012,23,0.293965868191994,5
830,1013,23,0.265177907465676,1
830,1014,23,0.1578886066733,1
830,1015,23,0.115870113978396,1
830,1016,23,0.135858906641389,1
831,1011,23,0.183501524256246,1
831,1012,23,0.257049797018644,1
831,1013,23,0.215507207489258,1
831,1014,23,0.127694829644803,1
831,1016,23,0.126586496984321,1
831,1017,23,0.13100889869436,1
832,1012,23,0.153638971591278,1
832,1016,23,0.13207426934673,1
832,1017,23,0.134697943165597,1
833,1016,23,0.128186231166318,1
833,1017,23,0.140415965040231,1
834,1017,23,0.143554087707882,1
836,1013,23,0.152089312644614,2
836,1014,23,0.144217714121565,1
837,1010,23,0.115140690212925,1
837,1011,23,0.14288982534342,1
837,1012,23,0.215727717533088,2
837,1013,23,0.320676837231178,2
837,1014,23,0.274236814314338,2
837,1015,23,0.138319835945427,1
838,1009,23,0.136504467342232,1
838,1010,23,0.23350449673729,2
838,1011,23,0.275517642734912,2
838,1012,23,0.366462042830296,2
838,1013,23,0.462811859662339,2
838,1014,23,0.344848407706442,2
838,1015,23,0.156254142512707,2
839,1009,23,0.168904569603117,2
839,1010,23,0.314598066389304,2
839,1011,23,0.395818920411844,2
839,1012,23,0.479810588420288,2
839,1013,23,0.491742767991307,2
839,1014,23,0.313690800166459,2
839,1015,23,0.147758770491394,2
840,1009,23,0.13495225281559,1
840,1010,23,0.284010152977724,2
840,1011,23,0.451456416785746,2
840,1012,23,0.528145532671901,2
840,1013,23,0.430967590158271,2
840,1014,23,0.244253242571695,2
840,1015,23,0.136147592963991,1
841,1010,23,0.243035114187082,2
841,1011,23,0.494567331594817,2
841,1012,23,0.567584185044152,2
841,1013,23,0.374417198219451,2
841,1014,23,0.191892565019372,2
842,1010,23,0.22585082912436,2
842,1011,23,0.49419744377936,2
842,1012,23,0.549602276383454,2
842,1013,23,0.319586346523078,2
842,1014,23,0.155034400697417,2
843,1010,23,0.204446256930332,2
843,1011,23,0.425336929077544,2
843,1012,23,0.446609671030671,2
843,1013,23,0.247226877748308,2
843,1014,23,0.133450007532484,1
844,1010,23,0.147625397481013,1
844,1011,23,0.2764082800226,2
844,1012,23,0.277112654393539,2
844,1013,23,0.166492879376908,1
845,1011,23,0.129199512739225,1
845,1012,23,0.131594585807143,1
845,1015,23,0.152241269549951,1
845,1016,23,0.169476077368924,1
846,1015,23,0.18991859735827,2
846,1016,23,0.242371676203259,2
846,1017,23,0.226282168627955,2
846,1018,23,0.168574134289627,1
847,1015,23,0.186746156902341,1
847,1016,23,0.263957188170486,2
847,1017,23,0.282370459888512,2
847,1018,23,0.247624982935321,1
847,1019,23,0.187183467277129,1
848,1016,23,0.188891089330922,1
848,1017,23,0.229422611338258,1
848,1018,23,0.256596364113948,1
848,1019,23,0.259022822530445,1
848,1020,23,0.197706356370423,1
849,1018,23,0.16290529260849,1
849,1019,23,0.210181873443157,1
798,1023,24,0.123900499989212,1
799,1023,24,0.16449173070848,1
799,1024,24,0.200129752801693,1
800,1024,24,0.127860907012785,1
822,1009,24,0.159235597528516,1
822,1010,24,0.194005464371729,1
822,1011,24,0.11964585973903,1
823,1006,24,0.149907506847777,1
823,1007,24,0.172676299452357,4
823,1008,24,0.174981785898644,1
823,1009,24,0.246106450246179,1
823,1010,24,0.283823795846045,1
823,1011,24,0.175321713366338,1
824,1005,24,0.164725937247769,1
824,1006,24,0.265890360766868,4
824,1007,24,0.329733977549901,4
824,1008,24,0.288798014401506,4
824,1009,24,0.283491311357827,4
824,1010,24,0.300466816135513,4
824,1011,24,0.227691035138495,1
824,1012,24,0.139443737623102,1
825,1004,24,0.136656730446092,1
825,1005,24,0.206536532922606,4
825,1006,24,0.330885896392407,4
825,1007,24,0.438534556481803,4
825,1008,24,0.376001822682037,4
825,1009,24,0.299657863192196,4
825,1010,24,0.316377362451148,4
825,1011,24,0.305316553214618,3
825,1012,24,0.205056110172678,1
826,1004,24,0.146968813633353,1
826,1005,24,0.199654297157093,1
826,1006,24,0.294146619535334,4
826,1007,24,0.398360556580352,4
826,1008,24,0.346875512588104,4
826,1009,24,0.262495843943897,4
826,1010,24,0.277782758083665,3
826,1011,24,0.314551924627302,3
826,1012,24,0.240782388101634,3
826,1013,24,0.122853265710881,1
827,1004,24,0.156923209838601,1
827,1005,24,0.173631897934328,1
827,1006,24,0.209435008138757,1
827,1007,24,0.261528845455387,4
827,1008,24,0.243341642462066,4
827,1009,24,0.219567117255851,1
827,1010,24,0.244147439205225,1
827,1011,24,0.292539972332844,3
827,1012,24,0.25296883021518,3
827,1013,24,0.142333804156744,1
828,1003,24,0.165273761735529,1
828,1004,24,0.189420954097638,1
828,1005,24,0.178615231784273,1
828,1006,24,0.160008430823017,1
828,1007,24,0.161314697274711,1
828,1008,24,0.167310523647523,1
828,1009,24,0.201693343781141,1
828,1010,24,0.234181454563578,1
828,1011,24,0.261970053972907,1
828,1012,24,0.252233011611331,1
828,1013,24,0.175523663068944,1
828,1014,24,0.120797919903931,1
828,1015,24,0.118817439635788,1
828,1016,24,0.117880165957715,1
829,1002,24,0.144588885615443,1
829,1003,24,0.181304973822853,1
829,1004,24,0.226599814264687,1
829,1005,24,0.20064409565868,1
829,1006,24,0.149058029707663,1
829,1009,24,0.182132840413381,1
829,1010,24,0.205678140694735,1
829,1011,24,0.233593152986486,1
829,1012,24,0.277698883242169,5
829,1013,24,0.235477687125219,1
829,1014,24,0.151632217134511,1
829,1015,24,0.12967636983091,1
829,1016,24,0.139735356385403,1
830,1003,24,0.17127157839874,1
830,1004,24,0.213374558332185,1
830,1005,24,0.184810617155842,1
830,1010,24,0.168964678728502,1
830,1011,24,0.241628131975143,5
830,1012,24,0.340499776286649,5
830,1013,24,0.289882098494361,5
830,1014,24,0.162084221269793,1
830,1016,24,0.12600788776816,1
831,1004,24,0.149143529756702,1
831,1010,24,0.131953450475781,1
831,1011,24,0.222243881187813,1
831,1012,24,0.314474527062249,5
831,1013,24,0.252950128551561,1
831,1014,24,0.141450374311206,1
831,1016,24,0.138201207571602,1
831,1017,24,0.138084545934442,1
832,1011,24,0.136702483571507,1
832,1012,24,0.178008793833143,1
832,1013,24,0.147477939338587,1
832,1016,24,0.139646464598881,1
832,1017,24,0.134336581801312,1
833,1016,24,0.118642305857653,1
833,1017,24,0.116958037329651,1
834,1017,24,0.118262313490947,1
836,1013,24,0.125326336964031,1
836,1014,24,0.130154675477144,1
837,1011,24,0.148446598365239,2
837,1012,24,0.230669757921332,2
837,1013,24,0.27789404946981,2
837,1014,24,0.219021565703278,2
837,1015,24,0.138002531837816,1
838,1010,24,0.176600669265177,2
838,1011,24,0.285247571869268,2
838,1012,24,0.456946132331087,2
838,1013,24,0.490768208754659,2
838,1014,24,0.30409809507775,2
838,1015,24,0.143204467879257,2
839,1009,24,0.132653526290535,1
839,1010,24,0.241798213477653,2
839,1011,24,0.382611376886195,2
839,1012,24,0.58388581753451,2
839,1013,24,0.581022720024601,2
839,1014,24,0.329435551758903,2
839,1015,24,0.15538059345796,2
840,1010,24,0.22679173007724,2
840,1011,24,0.396755652354068,2
840,1012,24,0.546044861946392,2
840,1013,24,0.484845057423529,2
840,1014,24,0.290830489534182,2
840,1015,24,0.17927271067377,2
841,1010,24,0.223274992936236,2
841,1011,24,0.456298969976434,2
841,1012,24,0.542790160079646,2
841,1013,24,0.378074739573446,2
841,1014,24,0.233636421193121,2
841,1015,24,0.187282334069372,1
842,1010,24,0.253258776662472,2
842,1011,24,0.53327195544689,2
842,1012,24,0.562798820316018,2
842,1013,24,0.313956392054327,2
842,1014,24,0.179305309039574,2
842,1015,24,0.163641099435474,1
843,1010,24,0.257360659180411,2
843,1011,24,0.513029312431688,2
843,1012,24,0.489657084976874,2
843,1013,24,0.25316576297276,2
843,1014,24,0.154099859252316,1
844,1010,24,0.193286380694833,2
844,1011,24,0.354043148930533,2
844,1012,24,0.319372926152736,2
844,1013,24,0.188941129235656,2
844,1014,24,0.159056577384516,1
844,1015,24,0.174060057684033,1
844,1016,24,0.163482900791019,1
845,1011,24,0.160672987609135,2
845,1012,24,0.151980070433197,2
845,1014,24,0.175294096614961,1
845,1015,24,0.235945181608228,2
845,1016,24,0.248702990165186,2
845,1017,24,0.198825347094868,2
846,1014,24,0.18269496201678,2
846,1015,24,0.308473224446626,2
846,1016,24,0.385794145653832,2
846,1017,24,0.333150634881439,2
846,1018,24,0.213667142797518,2
847,1014,24,0.156848921366241,1
847,1015,24,0.28855901467765,2
847,1016,24,0.40571389054995,2
847,1017,24,0.408031106755031,2
847,1018,24,0.306756581313279,2
847,1019,24,0.19521440680066,1
848,1015,24,0.18783214884753,1
848,1016,24,0.253508775979414,2
848,1017,24,0.289854941040768,2
848,1018,24,0.286915929850955,1
848,1019,24,0.251890540340525,1
848,1020,24,0.178340713031781,1
849,1016,24,0.129739128751203,1
849,1017,24,0.140146286579771,1
849,1018,24,0.162534391982536,1
849,1019,24,0.191266271271729,1
798,1023,25,0.11795655071227,1
799,1023,25,0.157105786596211,1
799,1024,25,0.190027274280106,1
800,1023,25,0.114873331795118,1
800,1024,25,0.122585871962475,1
810,1009,25,0.131850037813162,1
810,1010,25,0.124686170067936,1
822,1009,25,0.137233243380059,1
822,1010,25,0.14386617466374,1
823,1006,25,0.177553818158967,4
823,1007,25,0.192718782848624,4
823,1008,25,0.166162856253737,1
823,1009,25,0.21331435499187,1
823,1010,25,0.223789995297733,1
823,1011,25,0.13256763760491,1
824,1005,25,0.185022530087302,4
824,1006,25,0.322635377197481,4
824,1007,25,0.374106383165149,4
824,1008,25,0.269581489743433,4
824,1009,25,0.253910320011374,4
824,1010,25,0.27284349326726,4
824,1011,25,0.186809316236087,1
825,1004,25,0.140301081709877,1
825,1005,25,0.222754973629712,4
825,1006,25,0.392865659213857,4
825,1007,25,0.488344152818878,4
825,1008,25,0.353681999549841,4
825,1009,25,0.284082604258948,4
825,1010,25,0.318227225495615,4
825,1011,25,0.261016316235805,4
825,1012,25,0.152000915486475,1
826,1004,25,0.153262712491176,1
826,1005,25,0.219795823998597,4
826,1006,25,0.351945547727446,4
826,1007,25,0.454477936700569,4
826,1008,25,0.35674558643094,4
826,1009,25,0.283846642966587,4
826,1010,25,0.301179363651635,4
826,1011,25,0.274495552066044,3
826,1012,25,0.180208900880146,1
827,1004,25,0.16803391765747,1
827,1005,25,0.201359610945099,1
827,1006,25,0.253192072491982,4
827,1007,25,0.298349594673239,4
827,1008,25,0.270308546358786,4
827,1009,25,0.27430250567433,4
827,1010,25,0.283191849202598,4
827,1011,25,0.255662529280823,1
827,1012,25,0.189097243374783,1
828,1003,25,0.167681695141402,1
828,1004,25,0.206850504177066,1
828,1005,25,0.216388705928729,1
828,1006,25,0.203527920453204,1
828,1007,25,0.183796817400819,4
828,1008,25,0.186977572324327,1
828,1009,25,0.254106781694303,1
828,1010,25,0.275838256141942,1
828,1011,25,0.240518350760112,1
828,1012,25,0.198770702435428,1
828,1013,25,0.147558964178447,1
828,1014,25,0.113772241907385,1
829,1002,25,0.145263064101295,1
829,1003,25,0.193813595666641,1
829,1004,25,0.258286061777295,1
829,1005,25,0.251690875349973,1
829,1006,25,0.201929257966037,1
829,1007,25,0.147542252805226,1
829,1008,25,0.143594058391964,1
829,1009,25,0.212960271730933,1
829,1010,25,0.251462616128145,1
829,1011,25,0.255160175273687,1
829,1012,25,0.26015321326143,5
829,1013,25,0.216080976413386,1
829,1014,25,0.148873074023069,1
830,1002,25,0.129415688896271,1
830,1003,25,0.1899369810465,1
830,1004,25,0.257906893791227,1
830,1005,25,0.244975988853997,1
830,1006,25,0.184951126947175,1
830,1009,25,0.168870522682763,1
830,1010,25,0.221227113662493,1
830,1011,25,0.297240190317927,5
830,1012,25,0.356247236558332,5
830,1013,25,0.27798348299218,5
830,1014,25,0.158451964847656,1
831,1003,25,0.143878811241236,1
831,1004,25,0.180181013260846,1
831,1005,25,0.174406132675914,1
831,1010,25,0.166154400463764,1
831,1011,25,0.266029728202175,5
831,1012,25,0.339234116469816,5
831,1013,25,0.256028012548298,5
831,1014,25,0.14298454667874,1
831,1015,25,0.114850107814855,1
831,1016,25,0.138968034664311,1
831,1017,25,0.131560797977846,1
832,1011,25,0.149387558202451,1
832,1012,25,0.186606824797633,5
832,1013,25,0.156339913429669,1
832,1014,25,0.117248066215007,1
832,1015,25,0.116187983375587,1
832,1016,25,0.140602004196521,1
832,1017,25,0.133004170706524,1
837,1011,25,0.148280886080112,1
837,1012,25,0.221969409542785,2
837,1013,25,0.212841325381719,2
837,1014,25,0.166940035211888,1
838,1010,25,0.133160025754593,1
838,1011,25,0.28220026061734,2
838,1012,25,0.483798376657912,2
838,1013,25,0.43395792493124,2
838,1014,25,0.230766186902259,2
838,1015,25,0.137045461247562,1
839,1010,25,0.17036530143266,2
839,1011,25,0.354036506777963,2
839,1012,25,0.617433916941437,2
839,1013,25,0.56711188559971,2
839,1014,25,0.293597888228871,2
839,1015,25,0.15525036487087,2
840,1010,25,0.167882796909637,2
840,1011,25,0.33042815315466,2
840,1012,25,0.517123233788037,2
840,1013,25,0.484241045506848,2
840,1014,25,0.317447644056748,2
840,1015,25,0.225624218663808,2
840,1016,25,0.162266974680397,1
841,1010,25,0.19920903739758,2
841,1011,25,0.390365972242963,2
841,1012,25,0.460948712312732,2
841,1013,25,0.361619772284398,2
841,1014,25,0.293622030804702,2
841,1015,25,0.266179765478312,2
841,1016,25,0.199697094289077,1
842,1010,25,0.272976265657461,2
842,1011,25,0.532561433551764,2
842,1012,25,0.499117064782845,2
842,1013,25,0.293227976859683,2
842,1014,25,0.230625524011664,2
842,1015,25,0.222512959028094,1
842,1016,25,0.184380938190389,1
843,1010,25,0.293055916843642,2
843,1011,25,0.549327074572719,2
843,1012,25,0.457301322617453,2
843,1013,25,0.247396653052295,2
843,1014,25,0.19144141682673,1
843,1015,25,0.182359121121678,1
844,1010,25,0.211787649157544,2
844,1011,25,0.37497450308455,2
844,1012,25,0.31024839860528,2
844,1013,25,0.215757795649513,2
844,1014,25,0.215532127338261,2
844,1015,25,0.221615632480371,2
844,1016,25,0.189325302389884,2
844,1017,25,0.156834871564794,1
845,1011,25,0.167289372395723,2
845,1012,25,0.161508827138121,2
845,1013,25,0.183056818009448,1
845,1014,25,0.255106143011292,2
845,1015,25,0.325314143196707,2
845,1016,25,0.312477523850745,2
845,1017,25,0.232438172158753,2
845,1018,25,0.154458759251553,1
846,1013,25,0.138401814711454,1
846,1014,25,0.249212410292077,2
846,1015,25,0.411240444132949,2
846,1016,25,0.488405910705539,2
846,1017,25,0.392398447375638,2
846,1018,25,0.223256409041279,2
846,1019,25,0.132390419321447,1
847,1014,25,0.203400612528946,2
847,1015,25,0.363271312901067,2
847,1016,25,0.485006777350995,2
847,1017,25,0.454781921172441,2
847,1018,25,0.296024158215509,2
847,1019,25,0.167997456479533,1
848,1014,25,0.168815925130787,1
848,1015,25,0.24513674307843,2
848,1016,25,0.287613426531998,2
848,1017,25,0.29274192203545,2
848,1018,25,0.251672621207272,1
848,1019,25,0.194440902224782,1
849,1015,25,0.15733269147842,1
849,1016,25,0.148647629472277,2
849,1017,25,0.141841378047865,1
849,1018,25,0.14152581691646,1
799,1023,26,0.136295239536278,1
799,1024,26,0.152610121001177,1
809,1009,26,0.130198285212901,1
810,1008,26,0.147460380030995,1
810,1009,26,0.191587979927321,1
810,1010,26,0.161200343903338,1
811,1009,26,0.147913671613296,1
811,1010,26,0.129068000473713,1
823,1005,26,0.1433110131883,1
823,1006,26,0.204732481887886,4
823,1007,26,0.20407106952506,4
823,1008,26,0.153786712378495,1
823,1009,26,0.166350544171304,1
823,1010,26,0.155196591699533,1
824,1004,26,0.128209796675702,1
824,1005,26,0.206624176361304,4
824,1006,26,0.362233912306062,4
824,1007,26,0.391238284726752,4
824,1008,26,0.247572740756597,4
824,1009,26,0.212875054326684,1
824,1010,26,0.215247032959868,1
824,1011,26,0.138451807508723,1
825,1004,26,0.143814321121602,1
825,1005,26,0.239787219349033,4
825,1006,26,0.447666715438595,4
825,1007,26,0.515426658434794,4
825,1008,26,0.322804163244702,4
825,1009,26,0.249662380798093,4
825,1010,26,0.269797100610899,4
825,1011,26,0.194340327786932,1
826,1004,26,0.150961889683927,1
826,1005,26,0.240747717007368,4
826,1006,26,0.416507105831348,4
826,1007,26,0.489530036143674,4
826,1008,26,0.341188487425463,4
826,1009,26,0.287626098440093,4
826,1010,26,0.29029242806855,4
826,1011,26,0.218382505832611,1
826,1012,26,0.128678987027452,1
827,1004,26,0.166782142765956,1
827,1005,26,0.228856685807058,4
827,1006,26,0.301825089228605,4
827,1007,26,0.31579984848355,4
827,1008,26,0.274363745378875,4
827,1009,26,0.315683257507587,4
827,1010,26,0.298809975929028,4
827,1011,26,0.211667996196355,1
827,1012,26,0.136824126823094,1
828,1003,26,0.153546558521745,1
828,1004,26,0.208118024738768,1
828,1005,26,0.250347535323297,1
828,1006,26,0.245029220289487,4
828,1007,26,0.195873946641751,4
828,1008,26,0.195021230863417,1
828,1009,26,0.282577709180934,4
828,1010,26,0.280349078563852,1
828,1011,26,0.203002578003132,1
828,1012,26,0.149883623363004,1
828,1013,26,0.11722101475321,1
829,1002,26,0.136503207217542,1
829,1003,26,0.185683259391886,1
829,1004,26,0.26488211969272,1
829,1005,26,0.294784760810433,4
829,1006,26,0.249434569097183,1
829,1007,26,0.166641538759692,1
829,1008,26,0.148392436557315,1
829,1009,26,0.223059334961305,1
829,1010,26,0.272053948599537,1
829,1011,26,0.255847543849748,5
829,1012,26,0.218622683243093,5
829,1013,26,0.176410390437034,1
829,1014,26,0.131462260937859,1
830,1002,26,0.127382589589684,1
830,1003,26,0.190420503844487,1
830,1004,26,0.278661830488686,1
830,1005,26,0.301986856263536,4
830,1006,26,0.239626253141008,1
830,1007,26,0.154119985916752,1
830,1009,26,0.190052606319429,1
830,1010,26,0.288998126912975,5
830,1011,26,0.351949292770917,5
830,1012,26,0.32786498887463,5
830,1013,26,0.230725415391271,5
830,1014,26,0.144534558931392,1
831,1003,26,0.147401319046707,1
831,1004,26,0.205846031700121,1
831,1005,26,0.227188586916429,1
831,1006,26,0.182922608841562,1
831,1009,26,0.144939836229956,1
831,1010,26,0.227156106319287,1
831,1011,26,0.313154999859149,5
831,1012,26,0.319100503682438,5
831,1013,26,0.220932173823908,1
831,1014,26,0.132478416066133,1
831,1016,26,0.12279229687426,1
832,1004,26,0.147021114696408,1
832,1005,26,0.149412748919378,1
832,1010,26,0.127893399386793,1
832,1011,26,0.16507481513382,1
832,1012,26,0.179244104665627,1
832,1013,26,0.149781411940744,1
832,1014,26,0.122012844980921,1
832,1015,26,0.119350425272062,1
832,1016,26,0.131833891729521,1
832,1017,26,0.122600051309451,1
833,1014,26,0.125618073494994,1
833,1015,26,0.125302818562112,1
833,1016,26,0.117183317004316,1
834,1015,26,0.124535190642498,1
836,1016,26,0.193858477303953,1
837,1011,26,0.136406507368691,1
837,1012,26,0.191419311648762,2
837,1013,26,0.161401634101433,2
837,1016,26,0.229255191407523,1
837,1017,26,0.202596841406783,1
838,1011,26,0.263600184246717,2
838,1012,26,0.437300435112812,2
838,1013,26,0.335570309822971,2
838,1014,26,0.17258909175771,2
839,1010,26,0.133745559768114,2
839,1011,26,0.327638401967811,2
839,1012,26,0.581588433572209,2
839,1013,26,0.48160090762895,2
839,1014,26,0.242181479813179,2
839,1015,26,0.147766272355201,1
840,1010,26,0.134785563050563,2
840,1011,26,0.286553791213497,2
840,1012,26,0.479613490786581,2
840,1013,26,0.454825212932808,2
840,1014,26,0.326857548627387,2
840,1015,26,0.255434858902307,2
840,1016,26,0.186778001548705,1
841,1010,26,0.188028586976727,2
841,1011,26,0.328427687544475,2
841,1012,26,0.377209304779552,2
841,1013,26,0.354622146783281,2
841,1014,26,0.364155661342173,2
841,1015,26,0.342489242303747,2
841,1016,26,0.236705684523756,2
841,1017,26,0.176308414552099,1
842,1009,26,0.129286626218941,2
842,1010,26,0.320569950393013,2
842,1011,26,0.52588932063404,2
842,1012,26,0.420226428625737,2
842,1013,26,0.30037987930879,2
842,1014,26,0.31434860880821,2
842,1015,26,0.289274529964069,2
842,1016,26,0.207009350549165,1
842,1017,26,0.182057291816331,1
842,1018,26,0.176103909269515,1
843,1009,26,0.144981443898448,2
843,1010,26,0.375205612308012,2
843,1011,26,0.594527252563565,2
843,1012,26,0.429037832853104,2
843,1013,26,0.288126073520244,2
843,1014,26,0.26579541567109,2
843,1015,26,0.217788928219435,1
843,1016,26,0.17260681594143,1
843,1017,26,0.177710285604081,1
843,1018,26,0.175056380569527,1
844,1010,26,0.253506750358417,2
844,1011,26,0.395285098618065,2
844,1012,26,0.324495132809605,2
844,1013,26,0.304932839358174,2
844,1014,26,0.317197738954736,2
844,1015,26,0.279260495708086,2
844,1016,26,0.214664808245766,2
844,1017,26,0.179275348691812,1
844,1018,26,0.155300546097999,1
844,1019,26,0.142895148486969,1
845,1010,26,0.115319898786785,1
845,1011,26,0.174787043638189,2
845,1012,26,0.200970220639118,2
845,1013,26,0.286702627249275,2
845,1014,26,0.382344183344515,2
845,1015,26,0.432993022724924,2
845,1016,26,0.370415230634851,2
845,1017,26,0.251700367504178,2
845,1018,26,0.161082810778075,1
846,1013,26,0.195556689641605,2
846,1014,26,0.337280640556004,2
846,1015,26,0.507618831642537,2
846,1016,26,0.549237287744362,2
846,1017,26,0.405684542599234,2
846,1018,26,0.213001514316571,2
846,1019,26,0.128058440390544,1
847,1013,26,0.14399832288003,2
847,1014,26,0.277317713188837,2
847,1015,26,0.434629630275176,2
847,1016,26,0.512475187320479,2
847,1017,26,0.435771185475374,2
847,1018,26,0.25216227975258,2
847,1019,26,0.137675441154344,1
848,1013,26,0.148166485601274,1
848,1014,26,0.26779369078415,2
848,1015,26,0.337376928214536,2
848,1016,26,0.323552889293971,2
848,1017,26,0.27654187679344,2
848,1018,26,0.200441910418749,1
849,1014,26,0.197495903770378,1
849,1015,26,0.217351299869258,2
849,1016,26,0.18044104646784,2
849,1017,26,0.148303038365544,1
805,1016,27,0.126808785334956,1
809,1009,27,0.121728033247318,1
810,1008,27,0.152259005510537,1
810,1009,27,0.225818631172008,1
810,1010,27,0.160203420397664,1
811,1008,27,0.128936134902213,1
811,1009,27,0.188251263963948,1
811,1010,27,0.130178535408185,1
822,1006,27,0.118786160279004,1
823,1005,27,0.184930599869286,1
823,1006,27,0.229259101327121,4
823,1007,27,0.19525136260698,4
823,1008,27,0.131950105845763,1
823,1009,27,0.121343506787102,1
824,1004,27,0.161536361451434,1
824,1005,27,0.239506717948481,4
824,1006,27,0.367778790692959,4
824,1007,27,0.357048722968441,4
824,1008,27,0.213320738053382,4
824,1009,27,0.166785275412381,1
824,1010,27,0.150674310386753,1
825,1004,27,0.157803106624261,1
825,1005,27,0.253672309544283,4
825,1006,27,0.45389696033429,4
825,1007,27,0.485841286094093,4
825,1008,27,0.288653017624127,4
825,1009,27,0.211829551247693,4
825,1010,27,0.199860109671831,1
825,1011,27,0.1361059499649,1
826,1004,27,0.153782025185724,1
826,1005,27,0.256079618776244,4
826,1006,27,0.442598046415739,4
826,1007,27,0.472076531918275,4
826,1008,27,0.3155491190009,4
826,1009,27,0.280739034159413,4
826,1010,27,0.253115923274753,1
826,1011,27,0.163248458714405,1
827,1003,27,0.130294843739357,1
827,1004,27,0.173032137466366,1
827,1005,27,0.265821866512707,4
827,1006,27,0.349061039874679,4
827,1007,27,0.319321484800918,4
827,1008,27,0.273481516773696,4
827,1009,27,0.331651392699229,4
827,1010,27,0.282371307822882,4
827,1011,27,0.168675721537976,1
828,1003,27,0.149797711123646,1
828,1004,27,0.214099047590693,1
828,1005,27,0.292913982051491,4
828,1006,27,0.291166883941998,4
828,1007,27,0.214499366828562,4
828,1008,27,0.206626578842021,1
828,1009,27,0.280510398077865,4
828,1010,27,0.245991814230016,1
828,1011,27,0.162536500041596,1
828,1012,27,0.118277081681235,1
829,1002,27,0.133834286678508,1
829,1003,27,0.17752031297446,1
829,1004,27,0.259364728511671,4
829,1005,27,0.324230530178502,4
829,1006,27,0.281750784739706,4
829,1007,27,0.186990891960065,1
829,1008,27,0.160703148163624,1
829,1009,27,0.210872139128318,1
829,1010,27,0.245744028963931,1
829,1011,27,0.224815030183166,5
829,1012,27,0.177363044702441,1
829,1013,27,0.142453480671666,1
830,1002,27,0.128599234089147,1
830,1003,27,0.185148601440603,1
830,1004,27,0.276500045364489,4
830,1005,27,0.33262354945516,4
830,1006,27,0.276530759431692,4
830,1007,27,0.181387812300117,1
830,1008,27,0.14083737664557,1
830,1009,27,0.192034723571982,1
830,1010,27,0.30903665328218,5
830,1011,27,0.350238608731896,5
830,1012,27,0.271082592670512,5
830,1013,27,0.18778836245878,1
830,1014,27,0.135151246524765,1
831,1003,27,0.159346441393744,1
831,1004,27,0.231390078169185,1
831,1005,27,0.269425281389376,4
831,1006,27,0.225585566988747,1
831,1007,27,0.157022677251023,1
831,1009,27,0.156543653215947,1
831,1010,27,0.266495903676163,5
831,1011,27,0.331444025638144,5
831,1012,27,0.276663484714428,5
831,1013,27,0.189705459632718,1
831,1014,27,0.135935939123588,1
831,1015,27,0.114873661547373,1
832,1004,27,0.196441509157361,1
832,1005,27,0.200395109152236,1
832,1006,27,0.162885201274653,1
832,1010,27,0.150819684023852,1
832,1011,27,0.184206169495109,5
832,1012,27,0.174489336236033,1
832,1013,27,0.148669769980843,1
832,1014,27,0.134476655848594,1
832,1015,27,0.133118041226381,1
832,1016,27,0.12912111414054,1
833,1013,27,0.120052467823482,1
833,1014,27,0.155706859760794,1
833,1015,27,0.170828191160963,1
833,1016,27,0.151438664337548,1
833,1017,27,0.124391489320408,1
833,1019,27,0.114678071352547,1
834,1015,27,0.198607922589999,1
834,1016,27,0.171529256232482,1
834,1017,27,0.129262589634907,1
834,1018,27,0.118501666520791,1
834,1019,27,0.136351509403262,1
834,1020,27,0.148685256559974,1
834,1021,27,0.147869390596163,1
834,1022,27,0.125288709876334,1
835,1015,27,0.195887136731961,1
835,1016,27,0.181782949716832,1
835,1017,27,0.144901478976551,1
835,1018,27,0.124042211020904,1
835,1019,27,0.123993125042338,1
835,1020,27,0.128601542354934,1
835,1021,27,0.129999762578376,1
835,1022,27,0.113846436164815,1
836,1015,27,0.213817085858725,1
836,1016,27,0.245013698379758,1
836,1017,27,0.223823865565093,1
836,1018,27,0.16938637297863,1
836,1019,27,0.12466969423204,1
837,1012,27,0.149468135521393,1
837,1013,27,0.128256409512354,1
837,1015,27,0.206800075635746,1
837,1016,27,0.295820936611347,1
837,1017,27,0.307503069757959,6
837,1018,27,0.222496023894414,6
838,1011,27,0.212813343547488,1
838,1012,27,0.315536423539073,2
838,1013,27,0.222144201791798,2
838,1014,27,0.129337620049842,1
838,1016,27,0.195878916479312,1
838,1017,27,0.230921358892085,1
838,1018,27,0.187928542497858,1
838,1023,27,0.153963200496249,1
839,1011,27,0.268914259608675,2
839,1012,27,0.440971378540609,2
839,1013,27,0.336193211833131,2
839,1014,27,0.180810934283296,2
839,1015,27,0.131010547455636,1
840,1011,27,0.234051532175011,2
840,1012,27,0.385247157323576,2
840,1013,27,0.369412901547565,2
840,1014,27,0.295093620904936,2
840,1015,27,0.243566462838946,2
840,1016,27,0.194423095602999,1
840,1017,27,0.197384506392436,1
841,1010,27,0.173832069330129,2
841,1011,27,0.257934027691087,2
841,1012,27,0.296432862582154,2
841,1013,27,0.340130971942888,2
841,1014,27,0.395315671362873,2
841,1015,27,0.359749558815036,2
841,1016,27,0.247694537107445,2
841,1017,27,0.212955325447104,1
841,1018,27,0.203553900220171,1
842,1009,27,0.155268830997164,2
842,1010,27,0.349442021498151,2
842,1011,27,0.46092548833247,2
842,1012,27,0.350355058385463,2
842,1013,27,0.341072579507744,2
842,1014,27,0.39161408452907,2
842,1015,27,0.321079064321381,2
842,1016,27,0.21471752149914,2
842,1017,27,0.211760185505429,1
842,1018,27,0.208925894210389,1
842,1019,27,0.15991760763043,1
843,1009,27,0.186309635577593,2
843,1010,27,0.447449926884504,2
843,1011,27,0.578862371678088,2
843,1012,27,0.420005588829652,2
843,1013,27,0.378174866490378,2
843,1014,27,0.34722097518294,2
843,1015,27,0.237886880655781,2
843,1016,27,0.176945154380113,1
843,1017,27,0.209532120177927,1
843,1018,27,0.21018236807154,1
843,1019,27,0.168479460061773,1
844,1009,27,0.132890029318744,1
844,1010,27,0.289619215285732,2
844,1011,27,0.390776443139547,2
844,1012,27,0.374668186793158,2
844,1013,27,0.430808649571242,2
844,1014,27,0.40266189210525,2
844,1015,27,0.302431503626003,2
844,1016,27,0.217477006139704,2
844,1017,27,0.192753783695145,1
844,1018,27,0.17512395622812,1
844,1019,27,0.168359677555055,1
844,1020,27,0.173190406772018,1
845,1010,27,0.121070495473491,1
845,1011,27,0.180299688742136,2
845,1012,27,0.256416507812443,2
845,1013,27,0.383378733937885,2
845,1014,27,0.464118997602136,2
845,1015,27,0.483603069107876,2
845,1016,27,0.37976019756494,2
845,1017,27,0.244929234694949,2
845,1018,27,0.162990392244076,1
845,1019,27,0.149809994395154,1
846,1012,27,0.131096589240523,1
846,1013,27,0.234486475399681,2
846,1014,27,0.389772347522322,2
846,1015,27,0.543973546708795,2
846,1016,27,0.529202953939546,2
846,1017,27,0.358726949964052,2
846,1018,27,0.187891198054952,2
846,1019,27,0.122345470791534,1
847,1013,27,0.183152269510475,2
847,1014,27,0.351456242488126,2
847,1015,27,0.490124343922558,2
847,1016,27,0.498001230258557,2
847,1017,27,0.368917778536313,2
847,1018,27,0.194401437945949,2
848,1013,27,0.199295032075002,2
848,1014,27,0.366060545905801,2
848,1015,27,0.438513452337468,2
848,1016,27,0.377790186930901,2
848,1017,27,0.26257632704791,2
848,1018,27,0.151236102237897,1
849,1014,27,0.239028058996259,2
849,1015,27,0.271861797249659,2
849,1016,27,0.223388097959785,2
849,1017,27,0.156415921324504,1
850,1015,27,0.116592813153233,1
804,1016,28,0.129858075100417,1
804,1017,28,0.140108247301755,1
805,1015,28,0.123595326053848,1
805,1016,28,0.162123073151581,1
805,1017,28,0.12687730314285,1
806,1015,28,0.120382443839187,1
806,1016,28,0.117838852710879,1
810,1008,28,0.135308691449778,1
810,1009,28,0.21124386413491,1
810,1010,28,0.132649439717943,1
811,1008,28,0.132554329746037,1
811,1009,28,0.1909042621798,1
822,1005,28,0.144655589785933,1
822,1006,28,0.139781203725748,1
823,1004,28,0.187425670308608,1
823,1005,28,0.256019109237406,4
823,1006,28,0.263614999544471,4
823,1007,28,0.181478258632985,4
824,1003,28,0.156795018649374,1
824,1004,28,0.218415763702926,4
824,1005,28,0.310214481230455,4
824,1006,28,0.375886692037491,4
824,1007,28,0.305726435267889,4
824,1008,28,0.176506148136584,4
824,1009,28,0.123142446661866,1
825,1003,28,0.155536083423175,1
825,1004,28,0.189755475983719,4
825,1005,28,0.279028821195043,4
825,1006,28,0.426706295978652,4
825,1007,28,0.418924331184699,4
825,1008,28,0.253855062954887,4
825,1009,28,0.172936320882485,1
825,1010,28,0.13532961894112,1
826,1003,28,0.140073693976152,1
826,1004,28,0.167410803663717,1
826,1005,28,0.261565235972127,4
826,1006,28,0.413289665969445,4
826,1007,28,0.410165969962961,4
826,1008,28,0.288719132951304,4
826,1009,28,0.251440075206126,4
826,1010,28,0.19643587981529,1
826,1011,28,0.115811900928479,1
827,1003,28,0.137052892450171,1
827,1004,28,0.19039578420221,4
827,1005,28,0.297745347219232,4
827,1006,28,0.365944473111954,4
827,1007,28,0.305409449135668,4
827,1008,28,0.267669138646597,4
827,1009,28,0.300233021786543,4
827,1010,28,0.231356843852603,1
827,1011,28,0.128256409512354,1
828,1003,28,0.153778397910916,1
828,1004,28,0.232327163417398,4
828,1005,28,0.339442237250341,4
828,1006,28,0.333048812095765,4
828,1007,28,0.244857207380911,4
828,1008,28,0.229384148093057,1
828,1009,28,0.253702057908453,1
828,1010,28,0.196769318229675,1
828,1011,28,0.128042129430775,1
829,1003,28,0.171104382228464,1
829,1004,28,0.256769224956894,4
829,1005,28,0.348947769975002,4
829,1006,28,0.313506091796056,4
829,1007,28,0.234149397933622,4
829,1008,28,0.206647306126637,1
829,1009,28,0.207328621393441,1
829,1010,28,0.203189311994531,1
829,1011,28,0.177070377799043,1
829,1012,28,0.13863187579382,1
830,1002,28,0.128163914004757,1
830,1003,28,0.175972620764462,1
830,1004,28,0.264032654329473,4
830,1005,28,0.338365925889217,4
830,1006,28,0.299985589826446,4
830,1007,28,0.225222768846778,4
830,1008,28,0.181141581580378,1
830,1009,28,0.200353301277017,1
830,1010,28,0.283994324869472,1
830,1011,28,0.292148226653611,5
830,1012,28,0.206472490323891,1
830,1013,28,0.147946140433571,1
830,1014,28,0.114640809347704,1
831,1003,28,0.171422970014497,1
831,1004,28,0.247968867430078,1
831,1005,28,0.283921590943458,4
831,1006,28,0.248691095530265,4
831,1007,28,0.189122752067099,1
831,1009,28,0.1692139949872,1
831,1010,28,0.279144046054519,1
831,1011,28,0.318505936812496,5
831,1012,28,0.232058250453244,1
831,1013,28,0.164088879444366,1
831,1014,28,0.135006555945909,1
832,1003,28,0.188507658119268,1
832,1004,28,0.245494901135092,1
832,1005,28,0.240778737273094,1
832,1006,28,0.193955330252065,1
832,1010,28,0.184659614176671,1
832,1011,28,0.227946758012438,1
832,1012,28,0.191490408590367,1
832,1013,28,0.151800626322012,1
832,1014,28,0.139179476521121,1
832,1015,28,0.137326775251886,1
832,1016,28,0.118183220057153,1
833,1004,28,0.20260878314917,1
833,1005,28,0.190287966991611,1
833,1011,28,0.14831787721703,1
833,1013,28,0.136417365639382,1
833,1014,28,0.169806830657802,1
833,1015,28,0.209860223671897,1
833,1016,28,0.175406907216854,1
833,1017,28,0.131021217296467,1
833,1018,28,0.125684659896821,1
833,1019,28,0.133441622403707,1
833,1020,28,0.128753181284883,1
834,1014,28,0.206194579833916,1
834,1015,28,0.29179944298249,1
834,1016,28,0.235211011765655,1
834,1017,28,0.153585645940858,1
834,1018,28,0.149270083961519,1
834,1019,28,0.182490515618527,1
834,1020,28,0.199521171460903,1
834,1021,28,0.182586355756141,1
834,1022,28,0.141416833796101,1
835,1014,28,0.186157007390879,1
835,1015,28,0.258951525382115,1
835,1016,28,0.222618950824423,1
835,1017,28,0.169968044180019,1
835,1018,28,0.158783130326853,1
835,1019,28,0.166682004072158,1
835,1020,28,0.170869045110014,1
835,1021,28,0.160684717367929,1
835,1022,28,0.13449218953519,1
835,1023,28,0.121088207880344,1
836,1014,28,0.160886372648878,1
836,1015,28,0.217057749700891,1
836,1016,28,0.25561235983056,1
836,1017,28,0.274440106579697,6
836,1018,28,0.239336071156391,6
836,1019,28,0.18099457095887,1
836,1020,28,0.14027613830714,1
836,1021,28,0.129279607206651,1
836,1022,28,0.135281910855906,1
837,1012,28,0.119810959627112,1
837,1015,28,0.19759190878412,1
837,1016,28,0.310257867205752,6
837,1017,28,0.389482801488483,6
837,1018,28,0.327156563261698,6
837,1019,28,0.21681467518131,6
837,1022,28,0.191790483142641,1
837,1023,28,0.214379478330048,1
838,1011,28,0.160261621670715,1
838,1012,28,0.20563449562838,1
838,1013,28,0.151411977958606,1
838,1016,28,0.203398162940765,1
838,1017,28,0.274421946651926,6
838,1018,28,0.252548843610659,6
838,1019,28,0.183429697148934,1
838,1021,28,0.163958627303543,1
838,1022,28,0.217205620033637,1
838,1023,28,0.230337414755509,1
838,1024,28,0.211628991215306,1
839,1011,28,0.202689596005438,1
839,1012,28,0.292961890343431,2
839,1013,28,0.219766688031472,2
839,1014,28,0.141635306442068,1
839,1015,28,0.11760543522163,1
839,1017,28,0.19063725706798,1
839,1018,28,0.203661917637497,1
839,1022,28,0.180583946963024,1
839,1023,28,0.212333342032512,1
840,1011,28,0.182022184978014,1
840,1012,28,0.280009315972285,2
840,1013,28,0.282124441152365,2
840,1014,28,0.252816296243396,2
840,1015,28,0.207319270561631,2
840,1016,28,0.181847263183472,1
840,1017,28,0.220457354130086,1
840,1018,28,0.235293120077211,1
841,1010,28,0.158357585041458,2
841,1011,28,0.198344827397777,2
841,1012,28,0.244760236664136,2
841,1013,28,0.330062128151336,2
841,1014,28,0.386821535912517,2
841,1015,28,0.319843223529915,2
841,1016,28,0.226483411718585,2
841,1017,28,0.224566750288698,1
841,1018,28,0.219614530919409,1
841,1019,28,0.170232894125313,1
842,1009,28,0.179021439455272,2
842,1010,28,0.351415682960731,2
842,1011,28,0.372557207070001,2
842,1012,28,0.335714882633164,2
842,1013,28,0.42371059095467,2
842,1014,28,0.445202618157535,2
842,1015,28,0.31299007662406,2
842,1016,28,0.204154920812822,2
842,1017,28,0.21383957967328,1
842,1018,28,0.202679279470595,1
842,1019,28,0.15518473239521,1
843,1009,28,0.237557104846802,2
843,1010,28,0.495914557987358,2
843,1011,28,0.530873149112368,2
843,1012,28,0.484382744761673,2
843,1013,28,0.539200335706639,2
843,1014,28,0.428345918406667,2
843,1015,28,0.243735767068283,2
843,1016,28,0.169968515254669,1
843,1017,28,0.203832799966912,1
843,1018,28,0.200776184990638,1
843,1019,28,0.165172704446163,1
843,1020,28,0.150179199152367,1
844,1009,28,0.166490735987249,2
844,1010,28,0.324194375199088,2
844,1011,28,0.392359630824449,2
844,1012,28,0.491699334908544,2
844,1013,28,0.591347451566224,2
844,1014,28,0.455963423502988,2
844,1015,28,0.285638728705188,2
844,1016,28,0.195301802925166,2
844,1017,28,0.181495323312194,1
844,1018,28,0.175168896749764,1
844,1019,28,0.174685468166707,1
844,1020,28,0.177413437913162,1
844,1021,28,0.157078746911281,1
845,1010,28,0.129294669818596,2
845,1011,28,0.190483969376756,2
845,1012,28,0.317500781277308,2
845,1013,28,0.442752841545845,2
845,1014,28,0.463611367558917,2
845,1015,28,0.439291573444919,2
845,1016,28,0.32571945582587,2
845,1017,28,0.214776335169237,2
845,1018,28,0.16087025011897,1
845,1019,28,0.151736937029285,1
845,1020,28,0.153208409360856,1
846,1012,28,0.143477997374984,2
846,1013,28,0.249919399127325,2
846,1014,28,0.392927982390099,2
846,1015,28,0.503617382240052,2
846,1016,28,0.442364252066769,2
846,1017,28,0.284559897094685,2
846,1018,28,0.163728460229381,1
847,1013,28,0.217637995901462,2
847,1014,28,0.40944136293579,2
847,1015,28,0.524124251026637,2
847,1016,28,0.46683507271367,2
847,1017,28,0.297372821385734,2
847,1018,28,0.152072459948998,2
848,1013,28,0.226145674748015,2
848,1014,28,0.425201824867824,2
848,1015,28,0.512638508901756,2
848,1016,28,0.422886351638949,2
848,1017,28,0.246170610613557,2
848,1018,28,0.122107330778915,1
849,1013,28,0.144493787420404,1
849,1014,28,0.248008885221625,2
849,1015,28,0.296793729318056,2
849,1016,28,0.247521228743581,2
849,1017,28,0.152710895645753,1
800,1021,29,0.117590113518627,1
801,1020,29,0.113827487187005,1
801,1021,29,0.118399031131345,1
803,1018,29,0.122340665830101,1
804,1016,29,0.128626733071862,1
804,1017,29,0.149837128295014,1
804,1018,29,0.115441188732384,1
805,1015,29,0.117829148573082,1
805,1016,29,0.171334207773504,1
805,1017,29,0.139758757018659,1
806,1015,29,0.12059891441789,1
806,1016,29,0.124654066330514,1
810,1009,29,0.156305277666002,1
811,1008,29,0.120749387438078,1
811,1009,29,0.159915122711649,1
822,1004,29,0.154730263126283,1
822,1005,29,0.195563579108367,1
822,1006,29,0.163055647860016,1
823,1003,29,0.150578093389419,1
823,1004,29,0.248493479714442,1
823,1005,29,0.357318201222175,4
823,1006,29,0.301354697636496,4
823,1007,29,0.168314913686405,1
824,1003,29,0.186814604049037,1
824,1004,29,0.299681558247109,4
824,1005,29,0.43192401302088,4
824,1006,29,0.405319318422816,4
824,1007,29,0.263072604192056,4
824,1008,29,0.147948177831434,1
825,1003,29,0.184504842600298,1
825,1004,29,0.253320463887935,4
825,1005,29,0.351370412686832,4
825,1006,29,0.407634179254645,4
825,1007,29,0.349793466741046,4
825,1008,29,0.229173907476605,4
825,1009,29,0.150207204540331,1
826,1003,29,0.158654150087587,1
826,1004,29,0.205880302380934,1
826,1005,29,0.286056147952865,4
826,1006,29,0.361315316737876,4
826,1007,29,0.341158032449318,4
826,1008,29,0.277724933670334,4
826,1009,29,0.227297263838265,1
826,1010,29,0.148454865725353,1
827,1003,29,0.153049610096223,1
827,1004,29,0.223573041867513,1
827,1005,29,0.321197304058619,4
827,1006,29,0.347439954234156,4
827,1007,29,0.287623931496701,4
827,1008,29,0.268137363295314,1
827,1009,29,0.2557430594923,1
827,1010,29,0.178219764615303,1
828,1003,29,0.161769884932479,1
828,1004,29,0.250572497022573,1
828,1005,29,0.359321987908644,4
828,1006,29,0.351495247469175,4
828,1007,29,0.285420691803273,4
828,1008,29,0.265684642467059,1
828,1009,29,0.227233268347015,1
828,1010,29,0.158973609361723,1
829,1003,29,0.163780513978245,1
829,1004,29,0.246402638432588,1
829,1005,29,0.345714407789917,4
829,1006,29,0.340818246304019,4
829,1007,29,0.312647252047267,1
829,1008,29,0.290775656444881,1
829,1009,29,0.222667212422352,1
829,1010,29,0.170142671552904,1
829,1011,29,0.140457761138584,1
830,1003,29,0.168784186476219,1
830,1004,29,0.244929446678542,1
830,1005,29,0.315083815015015,4
830,1006,29,0.306780017277134,4
830,1007,29,0.284828480306583,1
830,1008,29,0.255484109757002,1
830,1009,29,0.219637872668334,1
830,1010,29,0.231530293538863,1
830,1011,29,0.217861238178264,1
830,1012,29,0.158118903292991,1
830,1013,29,0.118068666479053,1
831,1002,29,0.120944800979911,1
831,1003,29,0.189693623882128,1
831,1004,29,0.25767752754397,1
831,1005,29,0.275970957870946,1
831,1006,29,0.249515947243031,1
831,1007,29,0.214506974684166,1
831,1008,29,0.178009147139131,1
831,1009,29,0.185676428809456,1
831,1010,29,0.266135767105969,1
831,1011,29,0.289484228844673,1
831,1012,29,0.202270221797962,1
831,1013,29,0.148278259838936,1
831,1014,29,0.131713744139949,1
832,1002,29,0.125961675344961,1
832,1003,29,0.21354871463042,1
832,1004,29,0.274977013912436,1
832,1005,29,0.263267770419696,1
832,1006,29,0.211850655392029,1
832,1007,29,0.158244880431361,1
832,1009,29,0.14672250047555,1
832,1010,29,0.241226140422266,1
832,1011,29,0.304776254144397,1
832,1012,29,0.228206155268654,1
832,1013,29,0.16131847764878,1
832,1014,29,0.151561414614563,1
832,1015,29,0.143000457225056,1
833,1003,29,0.180146671918835,1
833,1004,29,0.219434179989521,1
833,1005,29,0.220798600606801,1
833,1006,29,0.175337317714131,1
833,1010,29,0.205277515258343,1
833,1011,29,0.270490687372345,1
833,1012,29,0.215514532700071,1
833,1013,29,0.158907234943488,1
833,1014,29,0.184050102463447,1
833,1015,29,0.245753780209193,1
833,1016,29,0.184147944668325,1
833,1017,29,0.126475299813106,1
833,1018,29,0.132138594590235,1
833,1019,29,0.14638237280113,1
833,1020,29,0.137315175038621,1
834,1010,29,0.144978852987871,1
834,1011,29,0.176189845062605,1
834,1013,29,0.139419913022661,1
834,1014,29,0.23988261196573,1
834,1015,29,0.395459207808835,1
834,1016,29,0.29122967819289,1
834,1017,29,0.168059049490066,1
834,1018,29,0.17356688963258,1
834,1019,29,0.217414353211208,1
834,1020,29,0.228208981716556,1
834,1021,29,0.188348564432978,1
834,1022,29,0.135467808689801,1
835,1013,29,0.122918509549955,1
835,1014,29,0.212947317178048,1
835,1015,29,0.338525573088221,1
835,1016,29,0.266717544299154,1
835,1017,29,0.194859334282957,1
835,1018,29,0.197149310596381,1
835,1019,29,0.210705331594628,1
835,1020,29,0.200712919665096,1
835,1021,29,0.168761245140747,1
835,1022,29,0.138608875574016,1
835,1023,29,0.122076487166184,1
836,1014,29,0.167467191299364,1
836,1015,29,0.219302797269538,1
836,1016,29,0.244927868578463,1
836,1017,29,0.301236505006723,6
836,1018,29,0.313493514102892,6
836,1019,29,0.259313381374782,1
836,1020,29,0.177893592527399,1
836,1021,29,0.14638073581672,1
836,1022,29,0.165482330036973,1
836,1023,29,0.170440732261048,1
837,1015,29,0.177667441364632,1
837,1016,29,0.274783119586351,6
837,1017,29,0.404586043622078,6
837,1018,29,0.410844034814678,6
837,1019,29,0.304430438243574,6
837,1020,29,0.191022254602847,1
837,1021,29,0.195243224792395,1
837,1022,29,0.281637114426576,1
837,1023,29,0.274959537042908,1
837,1024,29,0.20475441041286,1
838,1012,29,0.13999481252595,1
838,1016,29,0.192930236482301,1
838,1017,29,0.282463921099142,6
838,1018,29,0.296494314270293,6
838,1019,29,0.224940642238682,1
838,1020,29,0.166144943640158,1
838,1021,29,0.228341612784363,1
838,1022,29,0.340188631480091,1
838,1023,29,0.306486820414755,1
838,1024,29,0.219007197926442,1
839,1012,29,0.18121929712082,1
839,1013,29,0.146848724928112,1
839,1014,29,0.116983899327955,1
839,1017,29,0.207114258873798,1
839,1018,29,0.228282893329197,1
839,1019,29,0.172244901064431,1
839,1021,29,0.177845919772784,1
839,1022,29,0.255460932884204,1
839,1023,29,0.243809019176413,1
839,1024,29,0.204987097736402,1
840,1012,29,0.187474520749849,1
840,1013,29,0.203773727205758,2
840,1014,29,0.200746978362317,2
840,1015,29,0.164153781754318,1
840,1016,29,0.165136184383894,1
840,1017,29,0.222758012061207,1
840,1018,29,0.241766533707417,1
840,1019,29,0.176222278552282,1
840,1022,29,0.153089133259387,1
840,1023,29,0.189164819033376,1
841,1010,29,0.136121836957483,1
841,1011,29,0.15246499467827,2
841,1012,29,0.200784546565682,2
841,1013,29,0.296383776603588,2
841,1014,29,0.329413693895127,2
841,1015,29,0.243563212423859,2
841,1016,29,0.188676314620961,1
841,1017,29,0.21425497329996,1
841,1018,29,0.209658485952884,1
841,1019,29,0.159198488622935,1
842,1009,29,0.188615133800746,1
842,1010,29,0.301587479174967,2
842,1011,29,0.277063403538845,2
842,1012,29,0.330753500861925,2
842,1013,29,0.463961611561453,2
842,1014,29,0.427802062722836,2
842,1015,29,0.26783064659047,2
842,1016,29,0.184908153162197,1
842,1017,29,0.19505644369353,1
842,1018,29,0.171567566378422,1
842,1019,29,0.135103267571626,1
843,1009,29,0.284669869471809,2
843,1010,29,0.465038582427088,2
843,1011,29,0.438902136031473,2
843,1012,29,0.545664469166233,2
843,1013,29,0.648698199335992,2
843,1014,29,0.447601612921917,2
843,1015,29,0.236308050411394,2
843,1016,29,0.165692794413884,1
843,1017,29,0.180297945765929,1
843,1018,29,0.168974842164083,1
843,1019,29,0.147464937678237,1
844,1009,29,0.217355162681391,2
844,1010,29,0.331208346990573,2
844,1011,29,0.374850963757495,2
844,1012,29,0.588292155598972,2
844,1013,29,0.689056530748126,2
844,1014,29,0.461176900873363,2
844,1015,29,0.26363735203663,2
844,1016,29,0.175784614871506,2
844,1017,29,0.168332166795474,1
844,1018,29,0.173025919280982,1
844,1019,29,0.169322295049316,1
844,1020,29,0.155413768890211,1
845,1010,29,0.136682368683937,2
845,1011,29,0.191333717384793,2
845,1012,29,0.347225426838385,2
845,1013,29,0.46109295537067,2
845,1014,29,0.430776663602483,2
845,1015,29,0.362730283665138,2
845,1016,29,0.253352284980567,2
845,1017,29,0.189347136699928,1
845,1018,29,0.167996914743685,1
846,1012,29,0.168703927132666,2
846,1013,29,0.296383493958797,2
846,1014,29,0.41126917968662,2
846,1015,29,0.452016524545015,2
846,1016,29,0.351608234724062,2
846,1017,29,0.222118528223354,2
846,1018,29,0.145206558696985,1
847,1012,29,0.127847010310599,1
847,1013,29,0.272942701588624,2
847,1014,29,0.453675178388904,2
847,1015,29,0.542044024940953,2
847,1016,29,0.435860736766406,2
847,1017,29,0.238877173785751,2
847,1018,29,0.120510293499292,1
848,1013,29,0.232925310454682,2
848,1014,29,0.425597763111444,2
848,1015,29,0.530278888440949,2
848,1016,29,0.427423177381558,2
848,1017,29,0.21776287779127,2
849,1013,29,0.132563174172597,1
849,1014,29,0.227928103456284,2
849,1015,29,0.284419446187682,2
849,1016,29,0.238639069103731,2
849,1017,29,0.139187967641694,1
803,1018,30,0.115811535845625,1
803,1019,30,0.114781637114427,1
804,1017,30,0.138110054626759,1
804,1018,30,0.116838478583392,1
805,1016,30,0.152053145888333,1
805,1017,30,0.135781991927853,1
806,1016,30,0.116106204816286,1
821,1004,30,0.119617265507754,1
822,1003,30,0.132395942671722,1
824,1002,30,0.143424235980512,1
825,1002,30,0.157216536246509,1
825,1009,30,0.124701491770938,1
826,1002,30,0.142958366705047,1
827,1002,30,0.136436196848529,1
827,1010,30,0.131483930371775,1
828,1002,30,0.141129395821323,1
828,1010,30,0.130097227923534,1
829,1002,30,0.139923067856702,1
829,1010,30,0.14223852930871,1
830,1002,30,0.134087453972474,1
830,1010,30,0.182507521413405,1
830,1012,30,0.127926633703375,1
831,1002,30,0.135737593142058,1
831,1013,30,0.135663975951074,1
831,1014,30,0.119981017575889,1
832,1002,30,0.135830112203387,1
832,1014,30,0.16029661074037,1
833,1003,30,0.174045254163146,1
833,1017,30,0.118853217755482,1
833,1018,30,0.130228751965912,1
833,1019,30,0.150022743484119,1
833,1020,30,0.136437704287411,1
834,1004,30,0.140510391953894,1
834,1005,30,0.16001701615852,1
834,1009,30,0.141912580981265,1
834,1020,30,0.240128889792933,1
834,1021,30,0.177514071235343,1
834,1022,30,0.122177756439143,1
835,1010,30,0.128732477554,1
835,1021,30,0.167097986542151,1
835,1022,30,0.13321968735906,1
835,1023,30,0.116434002111733,1
836,1021,30,0.162162596314745,1
839,1016,30,0.164791310632372,1
839,1019,30,0.176998126724545,1
839,1024,30,0.184440081612741,1
840,1013,30,0.151081295330925,1
840,1014,30,0.158596667203378,1
840,1016,30,0.158235623814482,1
840,1018,30,0.241316398325273,1
840,1019,30,0.166224519925468,1
840,1023,30,0.16693401723323,1
841,1010,30,0.118137184286947,1
841,1011,30,0.12726691720929,1
841,1012,30,0.17179652043536,2
841,1013,30,0.253765229019065,2
841,1014,30,0.266496610288138,2
841,1015,30,0.188662924324024,1
841,1017,30,0.206086774400183,1
841,1018,30,0.198098785107898,1
842,1009,30,0.17958781250739,1
842,1010,30,0.231301233490129,2
842,1011,30,0.220787977873435,2
842,1012,30,0.332791063600825,2
842,1013,30,0.449916144001491,2
842,1014,30,0.378836938357715,2
842,1015,30,0.238948989116197,2
842,1016,30,0.184483985770154,1
842,1017,30,0.180504735760567,1
842,1018,30,0.148362111126698,1
843,1008,30,0.135861438667635,1
843,1009,30,0.299343679954144,2
843,1010,30,0.37567748778527,2
843,1011,30,0.365632974999409,2
843,1012,30,0.584688104771525,2
843,1013,30,0.666764524574033,2
843,1014,30,0.432543240648768,2
843,1015,30,0.250680820638421,2
843,1016,30,0.186536611120998,1
843,1017,30,0.167886388853846,1
843,1018,30,0.148910654003301,1
844,1008,30,0.124817340804326,1
844,1009,30,0.25666627159206,2
844,1010,30,0.306725937907273,2
844,1011,30,0.348625625575359,2
844,1012,30,0.616306022906099,2
844,1013,30,0.685135917755642,2
844,1014,30,0.447531799658735,2
844,1015,30,0.262868558207256,2
844,1016,30,0.181030714161418,1
844,1017,30,0.179411183067241,1
844,1018,30,0.192477910603033,1
844,1019,30,0.169139470977515,1
845,1009,30,0.118642011435997,1
845,1010,30,0.141699054619127,2
845,1011,30,0.190552746275707,2
845,1012,30,0.353583544947917,2
845,1013,30,0.46719676383021,2
845,1014,30,0.421627687280674,2
845,1015,30,0.30373621553135,2
845,1016,30,0.206402064663664,2
845,1017,30,0.19439639744719,1
845,1018,30,0.201525711866813,1
846,1012,30,0.218237132195512,2
846,1013,30,0.382571783061833,2
846,1014,30,0.454963567557616,2
846,1015,30,0.403878725034575,2
846,1016,30,0.289417336244323,2
846,1017,30,0.195733059990697,2
846,1018,30,0.152864253998175,1
847,1012,30,0.186981870880511,2
847,1013,30,0.345161483919066,2
847,1014,30,0.475384276790651,2
847,1015,30,0.522219460677939,2
847,1016,30,0.398047386152798,2
847,1017,30,0.203221509946883,2
848,1012,30,0.124376450262195,1
848,1013,30,0.225907263867472,2
848,1014,30,0.371430891134743,2
848,1015,30,0.472534416478417,2
848,1016,30,0.371753907022489,2
848,1017,30,0.182604327254052,2
849,1013,30,0.114348554634626,1
849,1014,30,0.186647078126506,2
849,1015,30,0.235878171239216,2
849,1016,30,0.197627898887406,2
849,1017,30,0.126727395412242,1
803,1019,31,0.125687604113386,1
804,1017,31,0.125487609370579,1
804,1018,31,0.135812246697272,1
804,1019,31,0.122738653248451,1
805,1016,31,0.12340383420848,1
805,1017,31,0.132514441500019,1
831,1013,31,0.129060121750186,1
833,1020,31,0.126567159369924,1
834,1021,31,0.158211375246855,1
835,1022,31,0.127350415191065,1
840,1013,31,0.117113621509796,1
840,1014,31,0.125817797369877,1
841,1011,31,0.118312671371069,1
841,1012,31,0.15792373706535,2
841,1013,31,0.21220412625592,2
841,1014,31,0.209449964758905,2
841,1015,31,0.152012433261677,1
842,1009,31,0.14862155549038,1
842,1010,31,0.165671831591943,1
842,1011,31,0.194318952774672,2
842,1012,31,0.323137990295674,2
842,1013,31,0.401704291556015,2
842,1014,31,0.337027390823975,2
842,1015,31,0.230526197921637,2
842,1016,31,0.17839781905627,1
842,1017,31,0.158927020078803,1
843,1008,31,0.134992553251927,1
843,1009,31,0.25037853203529,1
843,1010,31,0.256677341846343,2
843,1011,31,0.30120009093625,2
843,1012,31,0.540391777712309,2
843,1013,31,0.59527734472932,2
843,1014,31,0.42986296721066,2
843,1015,31,0.288542338635027,2
843,1016,31,0.202725232802737,2
843,1017,31,0.158860174585918,1
844,1008,31,0.129062630222699,1
844,1009,31,0.238642979023328,1
844,1010,31,0.241279112766698,2
844,1011,31,0.295179804012218,2
844,1012,31,0.534182401423625,2
844,1013,31,0.590278206324856,2
844,1014,31,0.436887443966848,2
844,1015,31,0.272179631316251,2
844,1016,31,0.180455225814815,1
844,1017,31,0.183838154201388,1
844,1018,31,0.200537208820515,1
845,1009,31,0.116729047942115,1
845,1010,31,0.130625514590171,1
845,1011,31,0.184021461124706,2
845,1012,31,0.342573894418415,2
845,1013,31,0.462480694183142,2
845,1014,31,0.415642825170348,2
845,1015,31,0.254167691646593,2
845,1016,31,0.167180483490294,1
845,1017,31,0.191489843300786,1
846,1011,31,0.132334856066438,2
846,1012,31,0.283064423509678,2
846,1013,31,0.457854694009221,2
846,1014,31,0.461760421042754,2
846,1015,31,0.329507720395337,2
846,1016,31,0.222942225803227,2
846,1017,31,0.172158765064614,1
847,1011,31,0.116249117088337,1
847,1012,31,0.239482528265186,2
847,1013,31,0.378639652294148,2
847,1014,31,0.430858913236435,2
847,1015,31,0.425589330875203,2
847,1016,31,0.314333887725387,2
847,1017,31,0.166730512984278,2
848,1012,31,0.137012215154113,1
848,1013,31,0.203534751035634,2
848,1014,31,0.285427192633448,2
848,1015,31,0.355225287211859,2
848,1016,31,0.272215927618061,2
848,1017,31,0.143346438002007,1
849,1014,31,0.148345953266191,2
849,1015,31,0.180838079960023,2
849,1016,31,0.151807645334302,1
803,1019,32,0.138391297969885,1
804,1017,32,0.117709684041753,1
804,1018,32,0.179160064948004,1
804,1019,32,0.18736632667953,1
805,1017,32,0.128559534272989,1
805,1018,32,0.158843698750022,1
805,1019,32,0.139198908350448,1
825,1008,32,0.119861882796815,1
826,1009,32,0.119261922122127,1
831,1013,32,0.121309365651818,1
833,1020,32,0.114101947055166,1
834,1021,32,0.143837839523521,1
841,1012,32,0.164705056863892,2
841,1013,32,0.185419869778008,2
841,1014,32,0.170600461898116,2
841,1015,32,0.130956314986515,1
842,1011,32,0.194420127832701,2
842,1012,32,0.321130788317989,2
842,1013,32,0.362748632022769,2
842,1014,32,0.322105983505415,2
842,1015,32,0.233747194397151,2
842,1016,32,0.166344844168035,1
843,1009,32,0.179469290125361,1
843,1010,32,0.177031679016517,1
843,1011,32,0.25599678029898,2
843,1012,32,0.450507531117543,2
843,1013,32,0.507193545448199,2
843,1014,32,0.459669791744492,2
843,1015,32,0.335265548077926,2
843,1016,32,0.20589803834152,2
843,1017,32,0.143331175183335,1
844,1009,32,0.18614088486097,1
844,1010,32,0.182386820311118,1
844,1011,32,0.236991509067857,2
844,1012,32,0.403361296638628,2
844,1013,32,0.471081999116452,2
844,1014,32,0.427419597214215,2
844,1015,32,0.281839723633693,2
844,1016,32,0.176490119821606,1
845,1011,32,0.174701649580946,2
845,1012,32,0.318658517891745,2
845,1013,32,0.425911121968858,2
845,1014,32,0.378083218917152,2
845,1015,32,0.213839273474757,2
845,1016,32,0.144528281861676,1
846,1011,32,0.157170158947182,2
846,1012,32,0.328099183637052,2
846,1013,32,0.461944187263856,2
846,1014,32,0.407764290073072,2
846,1015,32,0.250005346697281,2
846,1016,32,0.168544197495598,1
847,1011,32,0.134098689102884,1
847,1012,32,0.260864323999868,2
847,1013,32,0.351108660057364,2
847,1014,32,0.34814484678721,2
847,1015,32,0.304153163704377,2
847,1016,32,0.222961469202694,2
847,1017,32,0.136112957200324,1
848,1012,32,0.136212106637357,1
848,1013,32,0.173112314371856,2
848,1014,32,0.210258093321584,2
848,1015,32,0.240690599206013,2
848,1016,32,0.185624174853866,1
849,1014,32,0.116587843315672,1
849,1015,32,0.134485877134875,1
803,1018,33,0.119343312044842,1
803,1019,33,0.147189323677182,1
804,1017,33,0.115262580778703,1
804,1018,33,0.229058871046989,1
804,1019,33,0.24359503351649,1
805,1017,33,0.125911046596914,1
805,1018,33,0.211987573239154,1
805,1019,33,0.186056527167959,1
826,1008,33,0.123499568354298,1
827,1009,33,0.123080017493828,1
833,1020,33,0.118726216029747,1
834,1021,33,0.153072987175746,1
841,1012,33,0.170754244217724,1
841,1013,33,0.165843644293793,2
841,1014,33,0.14837120286745,2
841,1015,33,0.129022671315483,1
842,1011,33,0.19563606572019,1
842,1012,33,0.302949379542867,2
842,1013,33,0.318564397176605,2
842,1014,33,0.303786149444287,2
842,1015,33,0.22759809210998,2
842,1016,33,0.151138895983797,1
843,1010,33,0.132684311018935,1
843,1011,33,0.21091538378122,2
843,1012,33,0.332802958235746,2
843,1013,33,0.411426094652653,2
843,1014,33,0.469804915739348,2
843,1015,33,0.346285279604945,2
843,1016,33,0.190078809846855,2
844,1011,33,0.174565355907733,1
844,1012,33,0.264218257741711,2
844,1013,33,0.346983671327825,2
844,1014,33,0.387455625945623,2
844,1015,33,0.269700624522507,2
844,1016,33,0.165349899175893,1
845,1011,33,0.152505059577282,1
845,1012,33,0.268766954565509,2
845,1013,33,0.3450498156732,2
845,1014,33,0.30082146468603,2
845,1015,33,0.180862293197051,2
845,1016,33,0.133820130885265,1
846,1011,33,0.166173384772173,1
846,1012,33,0.328003084408381,2
846,1013,33,0.396294988453489,2
846,1014,33,0.309139347555956,2
846,1015,33,0.180404149545851,2
846,1016,33,0.129110868266895,1
847,1011,33,0.137452787720855,1
847,1012,33,0.24927438016233,1
847,1013,33,0.289832093920226,2
847,1014,33,0.253559275181931,2
847,1015,33,0.192766066966653,1
847,1016,33,0.145485022699674,1
848,1012,33,0.126198661224687,1
848,1013,33,0.144202993038741,1
848,1014,33,0.152829512242712,1
848,1015,33,0.153716981553376,1
803,1018,34,0.114154401217483,1
803,1019,34,0.133353142807505,1
804,1018,34,0.234106247495649,1
804,1019,34,0.239430427408857,1
805,1017,34,0.118279484161952,1
805,1018,34,0.228261506540071,1
805,1019,34,0.191589487366202,1
829,1010,34,0.123507647284551,1
830,1010,34,0.126553097791611,1
831,1012,34,0.121209486049077,1
833,1021,34,0.123839601813788,1
834,1022,34,0.138209863568302,1
834,1023,34,0.119602921284651,1
841,1012,34,0.151748360589556,1
841,1013,34,0.136923441136255,1
841,1014,34,0.128820226984494,1
842,1011,34,0.172733381923113,1
842,1012,34,0.245981026620523,1
842,1013,34,0.246929064354356,2
842,1014,34,0.250040724403523,2
842,1015,34,0.194826194181305,1
843,1011,34,0.164483569340163,1
843,1012,34,0.230481987565702,2
843,1013,34,0.305507173571883,2
843,1014,34,0.393910479234605,2
843,1015,34,0.286271358406878,2
843,1016,34,0.16005878870314,1
844,1012,34,0.171084514655085,1
844,1013,34,0.237851667825667,2
844,1014,34,0.298291676044978,2
844,1015,34,0.219106524016469,1
844,1016,34,0.14329763466823,1
845,1011,34,0.123624497351571,1
845,1012,34,0.198728494146756,1
845,1013,34,0.234792297062689,2
845,1014,34,0.203524010533606,2
845,1015,34,0.141749742251505,1
846,1011,34,0.147019571926928,1
846,1012,34,0.261319287897178,1
846,1013,34,0.277832197368219,2
846,1014,34,0.200269143790732,2
846,1015,34,0.125139968055486,1
847,1012,34,0.195552096663765,1
847,1013,34,0.205252548301875,1
847,1014,34,0.166525100882992,1
847,1015,34,0.120637236340696,1
804,1018,35,0.197991474302548,1
804,1019,35,0.19376779543376,1
805,1018,35,0.203852773532087,1
805,1019,35,0.166025396670765,1
829,1010,35,0.122997461661354,1
830,1010,35,0.125095957906277,1
832,1023,35,0.121157679614405,1
832,1024,35,0.118925680813572,1
833,1022,35,0.130975358179255,1
833,1023,35,0.148940944103318,1
842,1012,35,0.184099600632333,1
842,1013,35,0.179934335020189,1
842,1014,35,0.186290839699044,1
843,1012,35,0.163718532331125,1
843,1013,35,0.215249694531643,2
843,1014,35,0.278803223544989,2
843,1015,35,0.204535407807912,1
844,1013,35,0.166037220644489,1
844,1014,35,0.211206696344998,1
844,1015,35,0.167049666059891,1
845,1012,35,0.141575326862212,1
845,1013,35,0.155833072436489,1
845,1014,35,0.141828505933044,1
846,1012,35,0.184082783267315,1
846,1013,35,0.181252649206065,1
846,1014,35,0.132580768810788,1
804,1018,36,0.138298390271969,1
804,1019,36,0.134414968623131,1
805,1018,36,0.149887556836334,1
805,1019,36,0.126002364417885,1
829,1010,36,0.124837078832176,1
830,1010,36,0.130569291830652,1
831,1011,36,0.126779084078252,1
831,1012,36,0.116843731065743,1
831,1013,36,0.116222112734005,1
831,1022,36,0.118516458264812,1
831,1023,36,0.13389988382357,1
831,1024,36,0.137667644868881,1
832,1015,36,0.12881995611657,1
832,1020,36,0.120091048837345,1
832,1021,36,0.145663183132437,1
843,1014,36,0.174166885637867,1
826,1008,37,0.123310208121723,1
827,1009,37,0.12343386521744,1
829,1010,37,0.12669337204562,1
830,1010,37,0.136643234157359,1
831,1011,37,0.132735245965505,1
831,1020,37,0.115675407048539,1
831,1021,37,0.150387637908282,1
832,1016,37,0.115568119796922,1
832,1017,37,0.113756496237197,1
818,1005,38,0.125875610006342,1
819,1006,38,0.122647500303608,1
828,1010,38,0.125406019241138,1
829,1010,38,0.13882666516174,1
829,1011,38,0.113814909493841,1
830,1010,38,0.149645695333977,1
830,1011,38,0.126728196239147,1
830,1012,38,0.119484104480966,1
830,1013,38,0.117667334430686,1
830,1014,38,0.118248934970877,1
830,1015,38,0.122916566367022,1
831,1015,38,0.161468208726394,1
831,1016,38,0.147303677048555,1
831,1017,38,0.121334603476211,1
831,1019,38,0.128721454407181,1
831,1020,38,0.157273300741877,1
832,1016,38,0.144265445760512,1
832,1017,38,0.13380450298374,1
807,1012,39,0.125519454016943,1
817,1005,39,0.131663680681483,1
817,1006,39,0.119034369512275,1
818,1006,39,0.136472528480938,1
824,1007,39,0.118270097999544,1
825,1008,39,0.115257575610543,1
826,1009,39,0.131712484015259,1
827,1010,39,0.11682419324462,1
829,1011,39,0.129897244957593,1
829,1012,39,0.12330999613813,1
829,1013,39,0.120347007248614,1
830,1011,39,0.149515702284213,1
830,1012,39,0.146196840050088,1
830,1015,39,0.170428814072394,1
830,1016,39,0.147473252145816,1
830,1017,39,0.118097084057336,1
830,1019,39,0.119264666131966,1
830,1020,39,0.125898586672413,1
831,1016,39,0.187305122305583,1
831,1017,39,0.147941347249004,1
831,1018,39,0.134391744642868,1
832,1016,39,0.167390735883612,1
832,1017,39,0.150104109853101,1
810,1016,40,0.115967320232496,1
817,1005,40,0.147175980487711,1
817,1006,40,0.135391494596444,1
822,1007,40,0.128719511224249,1
823,1007,40,0.130175814952079,1
823,1008,40,0.116555763131983,1
824,1007,40,0.133920293132796,1
824,1008,40,0.120864164776637,1
825,1009,40,0.122422409058803,1
826,1010,40,0.120114461247468,1
828,1011,40,0.123526030972781,1
828,1012,40,0.117369203061345,1
829,1011,40,0.138734546513864,1
829,1012,40,0.146294741139298,1
829,1015,40,0.154076187751136,1
829,1016,40,0.126373217936375,1
830,1016,40,0.18746199016415,1
830,1017,40,0.156247806558659,1
830,1018,40,0.149607667832828,1
809,1015,41,0.124130937931298,1
809,1016,41,0.146623880997499,1
810,1015,41,0.150722783968274,1
810,1016,41,0.163767288557437,1
817,1006,41,0.136847280142159,1
818,1007,41,0.121949791638971,1
822,1007,41,0.139736263204105,1
822,1008,41,0.121764847731243,1
823,1007,41,0.140416247685021,1
823,1008,41,0.133340600444939,1
824,1008,41,0.14018721119002,1
824,1009,41,0.121603893300084,1
825,1009,41,0.156010596918475,1
825,1010,41,0.136966273598838,1
826,1010,41,0.151301805374754,1
826,1011,41,0.124342709540364,1
827,1011,41,0.145389111900863,1
827,1012,41,0.130674270816483,1
828,1011,41,0.144975543688452,1
828,1012,41,0.147436166793967,1
828,1013,41,0.142062547596205,1
828,1015,41,0.136409451585256,1
829,1016,41,0.15914857826373,1
829,1017,41,0.137470040829924,1
829,1018,41,0.135345447049372,1
829,1019,41,0.117893014518803,1
809,1015,42,0.154491004311369,1
809,1016,42,0.18661684691082,1
810,1015,42,0.208196034700866,1
810,1016,42,0.225353209417461,1
811,1015,42,0.113824119003255,1
821,1008,42,0.130333636736813,1
822,1008,42,0.139148762453918,1
822,1009,42,0.11701696876841,1
823,1007,42,0.149928351901055,1
823,1008,42,0.149824656593646,1
823,1009,42,0.123715874056873,1
824,1009,42,0.149851248757658,1
824,1010,42,0.133787049667944,1
825,1010,42,0.169784207297719,1
825,1011,42,0.121120087857307,1
826,1011,42,0.148866985383213,1
826,1012,42,0.118626595518064,1
827,1011,42,0.170716051840446,1
827,1012,42,0.165261407802824,1
827,1013,42,0.13072467580407,1
827,1014,42,0.114768882768268,1
827,1015,42,0.114022724075843,1
828,1011,42,0.153470739056771,1
828,1012,42,0.170725967961836,1
828,1016,42,0.1337710095761,1
809,1015,43,0.14662759071037,1
809,1016,43,0.179339108645737,1
810,1015,43,0.205868925928128,1
810,1016,43,0.22696143472003,1
811,1015,43,0.114836929501512,1
818,1008,43,0.126258581920211,1
818,1009,43,0.129874951349765,1
819,1010,43,0.114355467655119,1
820,1010,43,0.120378263051665,1
821,1009,43,0.149594041998566,1
821,1010,43,0.114581748363416,1
822,1008,43,0.145992499643632,1
822,1009,43,0.134839913288347,1
823,1010,43,0.127706100105813,1
825,1011,43,0.137331591990186,1
826,1011,43,0.171115052069294,1
826,1012,43,0.141848090861632,1
827,1012,43,0.186769793072923,1
827,1016,43,0.134009526448439,1
827,1017,43,0.116199760241846,1
828,1019,43,0.115172287545097,1
829,1022,43,0.115029811017098,1
829,1023,43,0.11973230193737,1
830,1024,43,0.175480618622768,1
809,1015,44,0.118182831420566,1
809,1016,44,0.146771398024256,1
810,1015,44,0.164774575705418,1
810,1016,44,0.191649890913243,1
818,1010,44,0.145899474177054,1
821,1010,44,0.146670328958023,1
822,1010,44,0.132781152190181,1
825,1012,44,0.118392883607158,1
826,1012,44,0.157211672400744,1
826,1015,44,0.116365307650846,1
826,1016,44,0.146535566277424,1
826,1018,44,0.127630492624431,1
827,1018,44,0.148209365171322,1
827,1019,44,0.150427278840109,1
827,1021,44,0.136635567417425,1
828,1021,44,0.13117598887284,1
829,1023,44,0.12481644576249,1
810,1016,45,0.138467977146096,1
816,1011,45,0.136269306876776,1
816,1012,45,0.127120095017641,1
817,1008,45,0.124178386925455,1
817,1009,45,0.115329838461907,1
817,1010,45,0.128063056922117,1
817,1011,45,0.133368570502304,1
818,1011,45,0.131081573736043,1
821,1011,45,0.116252756140011,1
825,1012,45,0.143229364174528,1
825,1013,45,0.127472058442652,1
825,1015,45,0.116833791390621,1
825,1018,45,0.13832234441794,1
825,1021,45,0.122918097359636,1
826,1021,45,0.154348574890836,1
829,1023,45,0.116680845228518,1
815,1011,46,0.144470445671479,1
815,1012,46,0.143196059196748,1
815,1013,46,0.119024653597611,1
816,1010,46,0.14431824145195,1
816,1012,46,0.162572219276959,1
817,1011,46,0.1688472987025,1
817,1012,46,0.135044901422448,1
821,1011,46,0.135565639117813,1
823,1013,46,0.128668505616482,1
824,1013,46,0.150702869287431,1
824,1014,46,0.129171754665453,1
824,1015,46,0.134260644567675,1
824,1018,46,0.116471970728552,1
825,1012,46,0.164816642671694,1
825,1013,46,0.149528692167696,1
825,1014,46,0.149828754943104,1
825,1021,46,0.173330516149899,1
825,1022,46,0.128091674707126,1
826,1012,46,0.151669538023685,1
826,1022,46,0.118116621878459,1
827,1011,46,0.153064955352958,1
827,1022,46,0.115970476432653,1
828,1022,46,0.11513872347626,1
829,1022,46,0.134186568078908,1
814,1012,47,0.119722020733126,1
815,1010,47,0.148417203307057,1
815,1013,47,0.163488388810696,1
816,1013,47,0.141162088402057,1
817,1012,47,0.156543900530138,1
824,1019,47,0.118896309309123,1
824,1020,47,0.123596150434486,1
824,1021,47,0.136989097165647,1
825,1021,47,0.208026777578995,1
825,1022,47,0.144273277376574,1
826,1022,47,0.121229259407526,1
828,1022,47,0.117846448789616,1
810,1017,48,0.146976079959834,1
810,1018,48,0.144032852651901,1
811,1016,48,0.127653233753177,1
811,1017,48,0.147700757648203,1
812,1016,48,0.117494355819077,1
814,1013,48,0.119998364899889,1
821,1019,48,0.140924313472292,1
821,1020,48,0.136475190052712,1
825,1021,48,0.199304288691881,1
825,1022,48,0.140080206583193,1
826,1022,48,0.116693893996333,1
810,1017,49,0.160082354212524,1
810,1018,49,0.147141321170311,1
811,1016,49,0.130630602196395,1
811,1017,49,0.163969827103355,1
811,1018,49,0.11570291780812,1
812,1016,49,0.116066928967313,1
825,1022,49,0.129623927445459,1
810,1017,50,0.144173963063414,1
810,1018,50,0.126794240905127,1
811,1016,50,0.118023490420085,1
811,1017,50,0.151740623188424,1
815,1019,50,0.119793247220259,1
811,1017,51,0.122270675913925,1
814,1019,51,0.120756712648891,1
814,1020,51,0.12664322614909,1
814,1021,51,0.121852573608005,1
815,1019,51,0.147473087269688,1
815,1020,51,0.129914874926383,1
817,1022,51,0.133198795198317,1
814,1019,52,0.142980460106148,1
814,1020,52,0.175638534622432,1
815,1019,52,0.173234428698094,1
