x,y,z,signal,mito.p
80,176,38,0.18916102688244,1
81,174,38,0.195677414297624,1
81,175,38,0.213147288367122,1
82,174,38,0.20513256558843,1
82,175,38,0.223381432253483,1
83,174,38,0.288324278179379,1
83,175,38,0.315085134024036,1
84,174,38,0.226874403678377,1
84,175,38,0.237418349808541,1
88,173,38,0.182614478912767,1
89,173,38,0.148319502424574,1
79,176,39,0.165128741404419,1
80,174,39,0.307103622008193,1
80,175,39,0.327177219885116,1
80,176,39,0.180151971508651,1
81,173,39,0.137927312993021,1
81,174,39,0.189728648282382,1
81,175,39,0.202124212210085,1
81,176,39,0.143797751070776,1
82,173,39,0.128799052178961,1
82,174,39,0.175265879243405,1
82,175,39,0.18347550915868,1
82,176,39,0.143513068882702,1
83,173,39,0.159846263374634,1
83,174,39,0.243097296040928,1
83,175,39,0.240838304662631,1
83,176,39,0.16153117963028,1
84,173,39,0.155056187899995,1
84,174,39,0.194260433526232,1
84,175,39,0.179632623483505,1
84,176,39,0.127426034449312,1
85,172,39,0.114237133702951,1
85,173,39,0.127559548782088,1
85,174,39,0.126048482626155,1
85,175,39,0.116280007808533,1
86,174,39,0.115139618518095,1
87,173,39,0.13790761029577,1
87,174,39,0.128081899908131,1
88,171,39,0.132952752908438,1
88,172,39,0.150837172670246,1
88,173,39,0.16542976988286,1
88,174,39,0.132333431065621,1
89,171,39,0.174514821374617,1
89,172,39,0.163486881371815,1
89,173,39,0.156016532459069,1
89,174,39,0.124560699334814,1
90,173,39,0.12443926806682,1
78,176,40,0.136853333451416,1
79,174,40,0.294925706345818,1
79,175,40,0.330914419962485,2
79,176,40,0.208446929059644,1
79,177,40,0.115601165683644,1
80,173,40,0.169402413070475,1
80,174,40,0.280446591016475,1
80,175,40,0.295245165619955,1
80,176,40,0.184884434553552,1
80,187,40,0.139441935762565,1
81,173,40,0.126244802986689,1
81,174,40,0.162840390298538,1
81,175,40,0.16913306436227,1
81,176,40,0.133922142100799,1
82,174,40,0.14248935300629,1
82,175,40,0.138537884624208,1
83,173,40,0.12562800139325,1
83,174,40,0.183886580675444,1
83,175,40,0.163910471697411,1
84,173,40,0.116998361319721,1
84,174,40,0.146043905664852,1
84,175,40,0.124077023437566,1
88,171,40,0.146766699054619,1
88,172,40,0.142354072143575,1
88,173,40,0.129204199931996,1
89,170,40,0.147399952930221,1
89,171,40,0.192147004214893,1
89,172,40,0.190727620962784,1
89,173,40,0.155128721619283,1
90,171,40,0.174874722407485,1
90,172,40,0.184345089409498,1
90,173,40,0.151288214871092,1
78,174,41,0.198263802557917,1
78,175,41,0.221240986810946,2
78,176,41,0.171442637381149,1
79,173,41,0.153896131242905,1
79,174,41,0.311347156673493,2
79,175,41,0.364164399776937,2
79,176,41,0.269398171043249,2
79,177,41,0.140852710125439,1
79,187,41,0.127567121307093,1
80,173,41,0.14102051869276,1
80,174,41,0.230818052221263,1
80,175,41,0.259350195858707,2
80,176,41,0.201873718264761,1
80,187,41,0.134077773388409,1
80,188,41,0.19964117772808,1
81,174,41,0.129329541119588,1
81,175,41,0.133407104408703,1
81,176,41,0.117522997157818,1
83,174,41,0.126150022767038,1
88,171,41,0.127067911723249,1
88,172,41,0.118730019957549,1
88,192,41,0.115744372377351,1
89,170,41,0.122176778959243,1
89,171,41,0.169253706580225,1
89,172,41,0.186710720311768,1
89,173,41,0.141515182406229,1
90,170,41,0.114070231954331,1
90,171,41,0.160806019090394,1
90,172,41,0.2057407700695,1
90,173,41,0.166364805956343,1
91,171,41,0.114379115602567,1
91,172,41,0.129547943104357,1
93,193,41,0.11983816418817,1
78,173,42,0.119898485297148,1
78,174,42,0.215994416446384,1
78,175,42,0.23433780424003,2
78,176,42,0.192228052608486,1
78,177,42,0.115947487989716,1
78,180,42,0.140780070414354,1
78,181,42,0.142700312011584,1
79,173,42,0.148920758554551,1
79,174,42,0.295768341126635,2
79,175,42,0.356274747317913,2
79,176,42,0.294207694363752,2
79,177,42,0.151280418585629,1
79,180,42,0.132785968928481,1
79,181,42,0.127056429278646,1
80,174,42,0.185388908396614,1
80,175,42,0.225582858309507,2
80,176,42,0.201074493012974,1
80,187,42,0.114560444012354,1
80,188,42,0.168838195184882,1
81,189,42,0.123435478648118,1
82,190,42,0.16888504355886,1
88,192,42,0.129814912885578,1
89,171,42,0.129929949315194,1
89,172,42,0.152780544032808,1
89,173,42,0.118676329224275,1
90,171,42,0.143547457332178,1
90,172,42,0.188709289846485,1
90,173,42,0.155272081412252,1
91,172,42,0.124503334219268,1
77,174,43,0.120674451238074,1
77,175,43,0.13213451979451,1
77,176,43,0.126199956679975,1
78,173,43,0.137141548699368,1
78,174,43,0.220905534552431,1
78,175,43,0.241928347849813,1
78,176,43,0.20964685040902,1
78,177,43,0.134767980189238,1
78,180,43,0.165745684320252,1
78,181,43,0.170022924376785,1
78,182,43,0.135144333504271,1
79,173,43,0.143211722428872,1
79,174,43,0.253850493530779,1
79,175,43,0.313159899035512,2
79,176,43,0.275883549969573,1
79,177,43,0.152042794022892,1
79,180,43,0.142892451584596,1
79,181,43,0.140343796403797,1
79,188,43,0.125931632559135,1
80,174,43,0.151378319674838,1
80,175,43,0.199187909699512,1
80,176,43,0.186512550983232,1
80,188,43,0.123182417345948,1
80,189,43,0.144769790058045,1
81,189,43,0.116520385425742,1
81,190,43,0.164075606916092,1
82,190,43,0.147513611466485,1
82,191,43,0.189306765602393,1
83,191,43,0.125925473258081,1
87,192,43,0.114812492504025,1
88,192,43,0.131647546374708,1
90,171,43,0.11806559271696,1
90,172,43,0.141524980758956,1
90,173,43,0.121296069569812,1
77,174,44,0.136367726148101,1
77,175,44,0.172680209371955,1
77,176,44,0.166007955131835,1
77,177,44,0.115050031896465,1
78,173,44,0.146311935364036,1
78,174,44,0.214926631536432,1
78,175,44,0.251210661851404,1
78,176,44,0.221009995356146,1
78,177,44,0.141835807590124,1
78,180,44,0.160436166605537,1
78,181,44,0.167793964007447,1
78,182,44,0.136368632966803,1
79,173,44,0.1302021598019,1
79,174,44,0.201238544759959,1
79,175,44,0.25168616460347,1
79,176,44,0.226736779219277,1
79,177,44,0.136013242473711,1
79,180,44,0.125967010265376,1
79,181,44,0.12937511759201,1
79,189,44,0.151350561601066,1
80,174,44,0.123113993752985,1
80,175,44,0.165784065127389,1
80,176,44,0.157416460328119,1
80,189,44,0.125048614903916,1
80,190,44,0.165621249951362,1
81,190,44,0.14817805048394,1
82,190,44,0.117927768051133,1
82,191,44,0.14959267588208,1
88,192,44,0.117920984576168,1
77,174,45,0.140662030883843,1
77,175,45,0.20380031936977,1
77,176,45,0.198027063992382,1
77,177,45,0.125541406095649,1
78,173,45,0.142809248024478,1
78,174,45,0.198317976142707,1
78,175,45,0.258482499906492,1
78,176,45,0.229673317267175,1
78,177,45,0.142481721596954,1
78,180,45,0.12557836190197,1
78,181,45,0.139259983178866,1
78,182,45,0.123364134392322,1
79,174,45,0.151962263811414,1
79,175,45,0.193641476766268,1
79,176,45,0.176773412339461,1
79,177,45,0.115975552262011,1
80,175,45,0.125357816527541,1
80,176,45,0.120745406857283,1
80,190,45,0.157468337423989,1
81,190,45,0.137856463365608,1
81,191,45,0.167133022719271,1
82,191,45,0.117821705593606,1
77,174,46,0.137762731287054,1
77,175,46,0.206923355871743,1
77,176,46,0.204119802197639,1
77,177,46,0.125272281147903,1
78,173,46,0.123754890814789,1
78,174,46,0.175336316680499,1
78,175,46,0.255531217222037,1
78,176,46,0.240805046792316,1
78,177,46,0.144920710599151,1
79,174,46,0.120482405879991,1
79,175,46,0.160768651093755,1
79,176,46,0.152720364246225,1
79,190,46,0.14490610728499,1
80,190,46,0.140045076191143,1
80,191,46,0.159541478075856,1
81,190,46,0.123993596116988,1
81,191,46,0.139839722974188,1
92,167,46,0.131702473678939,1
77,169,47,0.149565471321022,1
77,174,47,0.133901980105764,1
77,175,47,0.18213778669721,1
77,176,47,0.179725024776171,1
77,177,47,0.114602593416694,1
78,168,47,0.131171478333063,1
78,169,47,0.149485718382718,1
78,174,47,0.151275342756271,1
78,175,47,0.230510181383526,1
78,176,47,0.23719277571222,1
78,177,47,0.14312516246187,1
79,175,47,0.148938600506933,1
79,176,47,0.149801868357435,1
79,190,47,0.116288534259705,1
80,190,47,0.119716897796303,1
80,191,47,0.126805016737753,1
92,167,47,0.135466277697187,1
92,168,47,0.123526301840705,1
76,174,48,0.126802166736119,1
76,175,48,0.121243921606018,1
77,169,48,0.235017706282883,1
77,170,48,0.160705220892085,1
77,174,48,0.147414096946598,1
77,175,48,0.160936012140159,1
77,176,48,0.150395622623605,1
78,168,48,0.158602449644711,1
78,169,48,0.203638882087094,1
78,170,48,0.136221245485574,1
78,174,48,0.1297603859948,1
78,175,48,0.187643035929146,1
78,176,48,0.209432935410295,1
78,177,48,0.132447937536255,1
79,175,48,0.131897675237179,1
79,176,48,0.142301877072316,1
92,168,48,0.116535518698884,1
75,174,49,0.124798968892962,1
75,175,49,0.126381909263674,1
76,170,49,0.157999697852719,1
76,174,49,0.166177176923108,1
76,175,49,0.149287148640728,1
77,169,49,0.28364963954781,1
77,170,49,0.219778935972381,1
77,171,49,0.116002085541692,1
77,174,49,0.156059364921652,1
77,175,49,0.145217522959472,1
77,176,49,0.120813642020386,1
78,168,49,0.158646777769309,1
78,169,49,0.21568395469807,1
78,170,49,0.16109730810044,1
78,175,49,0.142077174464098,1
78,176,49,0.159867873924219,1
79,176,49,0.123773439379146,1
74,174,50,0.121218872211485,1
75,173,50,0.115462045562529,1
75,174,50,0.158891477496434,1
75,175,50,0.158515147735134,1
76,169,50,0.182015625263507,1
76,170,50,0.181463973294213,1
76,173,50,0.125378873564412,1
76,174,50,0.196167567471316,1
76,175,50,0.179114641574844,1
77,168,50,0.184053364655401,1
77,169,50,0.278097671487425,1
77,170,50,0.24686146514203,1
77,171,50,0.131719102614097,1
77,174,50,0.151241272282184,1
77,175,50,0.136117079103515,1
78,168,50,0.143377163846076,1
78,169,50,0.196089133542032,1
78,170,50,0.170989322245115,1
74,174,51,0.131574565134503,1
75,173,51,0.152570962920866,1
75,174,51,0.193637036887689,1
75,175,51,0.172581990307356,1
76,169,51,0.173033962880637,1
76,170,51,0.181574393192255,1
76,171,51,0.119560383243724,1
76,173,51,0.150727859797632,1
76,174,51,0.211024013595591,1
76,175,51,0.188002618986626,1
77,168,51,0.158659096371416,1
77,169,51,0.237794667792975,1
77,170,51,0.240994748554013,1
77,171,51,0.138118557524197,1
77,174,51,0.136976531249349,1
77,175,51,0.128534779300113,1
78,168,51,0.122884521513932,1
78,169,51,0.17040767459746,1
78,170,51,0.171799441098192,1
74,173,52,0.138035825038729,1
74,174,52,0.136771119148063,1
75,172,52,0.14487097689294,1
75,173,52,0.204658570275246,1
75,174,52,0.224681103660071,1
75,175,52,0.166012901415664,1
76,169,52,0.161776409316387,1
76,170,52,0.169255720424355,1
76,171,52,0.12876537034146,1
76,172,52,0.128967932441112,1
76,173,52,0.189405985700623,1
76,174,52,0.222082137706615,1
76,175,52,0.172840245207546,1
77,168,52,0.127358953419102,1
77,169,52,0.193390346870166,1
77,170,52,0.215001815050628,1
77,171,52,0.142023613276353,1
77,174,52,0.125151391615757,1
78,169,52,0.151929159040361,1
78,170,52,0.168777096802732,1
78,171,52,0.117785927473912,1
74,173,53,0.141139900786026,1
74,174,53,0.130942865805247,1
75,170,53,0.157038952880193,1
75,171,53,0.153867360358635,1
75,172,53,0.176741073064715,1
75,173,53,0.237746947930894,1
75,174,53,0.228271328446531,1
75,175,53,0.14379493639974,1
76,169,53,0.159874739837247,1
76,170,53,0.167421709041873,1
76,171,53,0.154465260081728,1
76,172,53,0.1616990235282,1
76,173,53,0.219993840227872,1
76,174,53,0.222083527376833,1
76,175,53,0.148424870046992,1
77,169,53,0.153193111211586,1
77,170,53,0.180831049170866,1
77,171,53,0.15079375136435,1
77,172,53,0.117263482132939,1
77,173,53,0.11864260027931,1
77,174,53,0.118737050746705,1
78,169,53,0.135515175245894,1
78,170,53,0.152267355308715,1
78,171,53,0.123000323439855,1
91,159,53,0.124793516203884,1
92,159,53,0.201823407492103,1
94,162,53,0.118714026973169,1
74,173,54,0.141424170783781,1
74,174,54,0.125011282237876,1
75,170,54,0.209018837238903,1
75,171,54,0.185159400826962,1
75,172,54,0.194756840215907,1
75,173,54,0.243445797067259,1
75,174,54,0.219384128307922,1
75,175,54,0.129968860081313,1
76,169,54,0.161376160739715,1
76,170,54,0.178166721609673,1
76,171,54,0.185848170850108,1
76,172,54,0.190438369350602,1
76,173,54,0.22632647319882,1
76,174,54,0.209143224500329,1
76,175,54,0.129566644767976,1
77,169,54,0.11612611949713,1
77,170,54,0.14872502703733,1
77,171,54,0.164748207301864,1
77,172,54,0.142205424537657,1
77,173,54,0.1243657333139,1
78,167,54,0.132929870457298,1
78,168,54,0.119177682197778,1
78,170,54,0.119457971614737,1
78,171,54,0.117383299970256,1
79,167,54,0.125127731891443,1
91,158,54,0.141770917057038,1
91,159,54,0.128408978814737,1
92,158,54,0.190890860105997,1
92,159,54,0.191996566525303,1
92,160,54,0.11948947473198,1
93,159,54,0.165909217885122,1
94,162,54,0.131677176970216,1
94,163,54,0.113844363436354,1
74,172,55,0.14802588159501,1
74,173,55,0.14414787730465,1
74,174,55,0.123891843992512,1
75,169,55,0.290089371340515,1
75,170,55,0.271864058407981,1
75,171,55,0.213902797891357,1
75,172,55,0.19920154731064,1
75,173,55,0.228663003464566,1
75,174,55,0.204065746381511,1
75,175,55,0.122302049485638,1
76,168,55,0.121864821548914,1
76,169,55,0.178847259603304,1
76,170,55,0.212905250211772,1
76,171,55,0.222845066656592,1
76,172,55,0.210539301334112,1
76,173,55,0.209650854543548,1
76,174,55,0.180055542527724,1
77,170,55,0.14230340806493,1
77,171,55,0.185783115440894,1
77,172,55,0.167996914743685,1
77,173,55,0.126013387564703,1
78,167,55,0.141995443012262,1
78,168,55,0.117370298309907,1
79,166,55,0.113910773185187,1
79,167,55,0.132029375932551,1
88,157,55,0.128714741593414,1
90,157,55,0.166353500164735,1
90,158,55,0.117396996465715,1
91,157,55,0.189381548703136,1
91,158,55,0.144933983127425,1
91,159,55,0.130696623308642,1
92,158,55,0.167690833989619,1
92,159,55,0.16658500980165,1
92,160,55,0.117359734460872,1
93,159,55,0.13895343135015,1
94,162,55,0.120833968891549,1
74,170,56,0.242463700636205,1
74,171,56,0.180613977971984,1
74,172,56,0.153006400773919,1
74,173,56,0.141025358984793,1
74,174,56,0.121461393218353,1
75,168,56,0.196510710023498,1
75,169,56,0.305501332246219,1
75,170,56,0.308375664886538,1
75,171,56,0.226001620119937,1
75,172,56,0.189529807672468,1
75,173,56,0.20045361662381,1
75,174,56,0.180420001207835,1
76,168,56,0.122304475520088,1
76,169,56,0.189719426996101,1
76,170,56,0.241277793757677,1
76,171,56,0.241530713737451,1
76,172,56,0.214465308131342,1
76,173,56,0.181826877427978,1
76,174,56,0.14421747858424,1
77,170,56,0.143790896934614,1
77,171,56,0.19154161440486,1
77,172,56,0.181106851601781,1
77,173,56,0.122660655063219,1
78,167,56,0.131889855397983,1
79,166,56,0.119617595260009,1
79,167,56,0.120105440167914,1
87,157,56,0.143775080603228,1
88,156,56,0.255239174492551,1
88,157,56,0.169240045415365,1
89,157,56,0.144591676732747,1
90,156,56,0.213560585711609,1
90,157,56,0.17371625562734,1
90,158,56,0.134130757509707,1
91,157,56,0.221647265143142,1
91,158,56,0.172664546139831,1
91,159,56,0.143348334077474,1
92,158,56,0.159578916733693,1
92,159,56,0.146957531395477,1
73,171,57,0.177804194335629,1
73,172,57,0.167530880592092,1
73,173,57,0.124166386298737,1
73,185,57,0.126043877871447,1
74,168,57,0.225983012671249,1
74,169,57,0.275591012611705,1
74,170,57,0.261336152369661,1
74,171,57,0.199063781529144,1
74,172,57,0.156201488143663,1
74,173,57,0.135485367997393,1
74,174,57,0.117835402089065,1
74,185,57,0.137109115209691,1
75,167,57,0.117493048586922,1
75,168,57,0.189484207646314,1
75,169,57,0.284937157228419,1
75,170,57,0.302787753830332,1
75,171,57,0.226671865132458,1
75,172,57,0.176825407203994,1
75,173,57,0.168316927530535,1
75,174,57,0.150688784155385,1
76,168,57,0.138540852394505,1
76,169,57,0.202374588386747,1
76,170,57,0.251055230770521,1
76,171,57,0.239266375661872,1
76,172,57,0.203142816926541,1
76,173,57,0.154210797332474,1
76,174,57,0.114862650177421,1
77,168,57,0.118921358703655,1
77,169,57,0.122364101793956,1
77,170,57,0.146791277374501,1
77,171,57,0.175981100108168,1
77,172,57,0.170861507915609,1
77,173,57,0.115708276282268,1
85,157,57,0.115814939359973,1
85,158,57,0.127339144730055,1
85,159,57,0.123770577600645,1
86,157,57,0.133199077843107,1
86,158,57,0.116018325840263,1
87,156,57,0.250124410815158,1
87,157,57,0.172385387302032,1
88,156,57,0.292487188418272,1
88,157,57,0.201643127223413,1
88,158,57,0.123554860741383,1
89,156,57,0.198931126907605,1
89,157,57,0.150789511692497,1
90,156,57,0.186473039596933,1
90,157,57,0.175176186629978,1
90,158,57,0.153753595830575,1
90,159,57,0.12331626143098,1
91,157,57,0.261821288598326,1
91,158,57,0.228542219924215,1
91,159,57,0.185595804383048,1
91,160,57,0.119624237412579,1
92,155,57,0.279976128763168,3
92,156,57,0.294238102232432,3
92,157,57,0.240585431790322,1
92,158,57,0.183541118080608,1
92,159,57,0.1553188002407,1
72,171,58,0.154724327585689,1
72,172,58,0.168312028354172,1
72,173,58,0.151778368044783,1
73,168,58,0.161492103988033,1
73,169,58,0.181615482678632,1
73,170,58,0.19738159750647,1
73,171,58,0.192451436207683,1
73,172,58,0.172625435166985,1
73,173,58,0.131885910147786,1
73,184,58,0.113859072742311,1
73,185,58,0.142596334059385,1
73,186,58,0.124427691407287,1
74,167,58,0.146641428528224,1
74,168,58,0.199851700989323,1
74,169,58,0.244718358127719,1
74,170,58,0.250838983952277,1
74,171,58,0.199765023253658,1
74,172,58,0.151958389222415,1
74,173,58,0.123565518805347,1
74,185,58,0.149623861023934,1
74,186,58,0.130881696761899,1
75,167,58,0.132496835084962,1
75,168,58,0.18129320873346,1
75,169,58,0.238981987895454,1
75,170,58,0.258932446858775,1
75,171,58,0.208935527686989,1
75,172,58,0.159974784316116,1
75,173,58,0.1342166226416,1
75,174,58,0.114993750252614,1
76,167,58,0.116138638305963,1
76,168,58,0.153092666319265,1
76,169,58,0.195048753399864,1
76,170,58,0.223329590488211,1
76,171,58,0.207475643791816,1
76,172,58,0.171482572734633,1
76,173,58,0.124100212087229,1
77,168,58,0.123354124056002,1
77,169,58,0.126921878581639,1
77,170,58,0.133345911811622,1
77,171,58,0.141454331338269,1
77,172,58,0.13809991474491,1
85,156,58,0.150983888870098,1
85,157,58,0.141038914157857,1
85,158,58,0.154371622218104,1
85,159,58,0.1524775841483,1
86,156,58,0.189053515870364,1
86,157,58,0.165518178817865,1
86,158,58,0.142506617892225,1
86,159,58,0.120229638999479,1
87,155,58,0.230272995297073,1
87,156,58,0.245287534074007,1
87,157,58,0.19408916256023,1
87,158,58,0.133310322121788,1
88,155,58,0.249927619379973,1
88,156,58,0.275794469753192,1
88,157,58,0.211204576509071,1
88,158,58,0.138756828344826,1
89,155,58,0.196787489934312,1
89,156,58,0.192036419440723,1
89,157,58,0.151015474425404,1
89,158,58,0.114904034085454,1
90,156,58,0.162118715711065,1
90,157,58,0.164453432339407,1
90,158,58,0.162469466118851,1
90,159,58,0.145347445348039,1
91,155,58,0.247055783435301,3
91,156,58,0.260021971863842,3
91,157,58,0.271962253918846,1
91,158,58,0.268379801864118,1
91,159,58,0.240853025745454,1
91,160,58,0.14356155424109,1
92,154,58,0.234406274940459,3
92,155,58,0.332037650358785,3
92,156,58,0.352001864701896,3
92,157,58,0.277830784144268,3
92,158,58,0.208071058596128,1
92,159,58,0.176399850141732,1
92,160,58,0.123609340524696,1
92,163,58,0.117958776539992,1
93,155,58,0.273603619323068,3
93,156,58,0.273973130278804,3
93,161,58,0.117645252806451,1
71,171,59,0.144000360277893,1
71,172,59,0.151978492333119,1
71,173,59,0.152729444210111,1
72,169,59,0.155743792013382,1
72,170,59,0.17068648012927,1
72,171,59,0.169380790744024,1
72,172,59,0.167831072913029,1
72,173,59,0.150285567808417,1
73,168,59,0.14453758558602,1
73,169,59,0.187634438816777,1
73,170,59,0.21200634556397,1
73,171,59,0.190609110357622,1
73,172,59,0.160855658581675,1
73,173,59,0.126493636393871,1
73,185,59,0.138062205219149,1
73,186,59,0.149407048916109,1
74,167,59,0.137360845725973,1
74,168,59,0.169376327311712,1
74,169,59,0.200075437894507,1
74,170,59,0.211297896397306,1
74,171,59,0.176084100580468,1
74,172,59,0.140322044531817,1
74,185,59,0.137087905073559,1
74,186,59,0.130464689704541,1
75,167,59,0.153361755936412,1
75,168,59,0.174810832908031,1
75,169,59,0.188091228128357,1
75,170,59,0.196854406088395,1
75,171,59,0.172691385618034,1
75,172,59,0.138368085766489,1
76,167,59,0.131192558923666,1
76,168,59,0.159399107539653,1
76,169,59,0.16964683015281,1
76,170,59,0.173719270505102,1
76,171,59,0.158680035639624,1
76,172,59,0.129830705663231,1
77,168,59,0.114015104443374,1
77,169,59,0.113974285824921,1
85,155,59,0.189602058746966,1
85,156,59,0.177240730169477,1
85,157,59,0.156619260697328,1
85,158,59,0.160801296567025,1
85,159,59,0.158452176831249,1
85,160,59,0.120171838139881,1
86,155,59,0.211937921971006,1
86,156,59,0.214712999182497,1
86,157,59,0.196154071182583,1
86,158,59,0.167531869848858,1
86,159,59,0.135566086638731,1
87,155,59,0.228134669690463,1
87,156,59,0.229387068755889,1
87,157,59,0.208959905800144,1
87,158,59,0.158653313930083,1
88,155,59,0.245401157279672,1
88,156,59,0.229212347168074,1
88,157,59,0.196417766994984,1
88,158,59,0.1453110195007,1
89,155,59,0.207666146380418,1
89,156,59,0.174244165434257,1
89,157,59,0.144738192725873,1
89,158,59,0.117176710182345,1
90,155,59,0.188539526319365,1
90,156,59,0.157688694368557,1
90,157,59,0.156885665188968,1
90,158,59,0.162179449010362,1
90,159,59,0.15358309036088,1
91,155,59,0.262696333315087,3
91,156,59,0.248934664678229,3
91,157,59,0.252979170303756,1
91,158,59,0.271738658336057,1
91,159,59,0.266729415380342,1
91,160,59,0.161148513914933,1
91,163,59,0.116058626276601,1
91,164,59,0.121556609182055,1
92,154,59,0.255979821611567,3
92,155,59,0.352012911402447,3
92,156,59,0.358027804521732,3
92,157,59,0.283213754173839,3
92,158,59,0.226429261687527,1
92,159,59,0.199030288121504,1
92,160,59,0.1431522021468,1
92,161,59,0.127451013182647,1
92,162,59,0.134478834568852,1
92,163,59,0.141777865408131,1
93,155,59,0.271638036790742,3
93,156,59,0.275521882406766,3
93,158,59,0.121646078035023,1
93,161,59,0.136419485475308,1
93,162,59,0.122418887775792,1
70,172,60,0.12846364702791,1
70,173,60,0.148456561594094,1
71,169,60,0.152784265522546,1
71,170,60,0.143741693187384,1
71,171,60,0.149078285917628,1
71,172,60,0.162089721066336,1
71,173,60,0.163700725709342,1
71,174,60,0.122375690230355,1
72,168,60,0.132630007888616,1
72,169,60,0.172498657201709,1
72,170,60,0.188110659957684,1
72,171,60,0.173213560091083,1
72,172,60,0.154321370329778,1
72,173,60,0.134246983402815,1
72,185,60,0.131104621063312,1
73,168,60,0.12535476631918,1
73,169,60,0.180066648112606,1
73,170,60,0.201960890628808,1
73,171,60,0.168297790122865,1
73,172,60,0.133496031525823,1
73,185,60,0.119606678104987,1
73,186,60,0.168441491444955,1
74,167,60,0.12185388084016,1
74,168,60,0.141148486121528,1
74,169,60,0.159395857124566,1
74,170,60,0.164540168959403,1
74,171,60,0.141066801777157,1
74,172,60,0.119097670168416,1
74,186,60,0.120590022883864,1
75,167,60,0.158146790912292,1
75,168,60,0.169293971685964,1
75,169,60,0.153408639640988,1
75,170,60,0.144513466563922,1
75,171,60,0.131358589184183,1
76,167,60,0.13258060393466,1
76,168,60,0.15204534960287,1
76,169,60,0.137498458408207,1
76,170,60,0.124729285175309,1
84,156,60,0.123770294955855,1
85,155,60,0.217401257335928,1
85,156,60,0.193980250101069,1
85,157,60,0.169870060652746,1
85,158,60,0.156193067684288,1
85,159,60,0.144041284888142,1
85,160,60,0.115516902205562,1
86,155,60,0.241444624845099,1
86,156,60,0.235588295453122,1
86,157,60,0.218694922540724,1
86,158,60,0.184889404391113,1
86,159,60,0.142531537741229,1
87,155,60,0.226886934264076,1
87,156,60,0.213070573860313,1
87,157,60,0.209209905117086,1
87,158,60,0.175229288519939,1
87,159,60,0.12446448233748,1
88,155,60,0.227114251336604,1
88,156,60,0.180237883748009,1
88,157,60,0.164335593015621,1
88,158,60,0.135829264269016,1
89,155,60,0.207324947011168,1
89,156,60,0.150235728110409,1
89,157,60,0.12848086480638,1
90,155,60,0.216341292265171,3
90,156,60,0.162362414404558,1
90,157,60,0.150276405406467,1
90,158,60,0.155632159098114,1
90,159,60,0.148920440579162,1
90,164,60,0.114304862460805,1
91,154,60,0.300656753434535,3
91,155,60,0.300248119729087,3
91,156,60,0.24156924764385,3
91,157,60,0.220340386294403,1
91,158,60,0.241882842038589,1
91,159,60,0.246072744854946,1
91,160,60,0.164979069211136,1
91,162,60,0.122121274588566,1
91,163,60,0.149823973535403,1
91,164,60,0.134584685042786,1
92,154,60,0.265051965657904,3
92,155,60,0.345512198996253,3
92,156,60,0.314345593930448,3
92,157,60,0.250309472491549,3
92,158,60,0.21609522642156,1
92,159,60,0.197323066481164,1
92,160,60,0.161552166005953,1
92,161,60,0.155134056539699,1
92,162,60,0.161865124449914,1
92,163,60,0.147859403813575,1
93,155,60,0.23301660472192,3
93,156,60,0.235115996008679,3
93,157,60,0.179130634559223,1
93,158,60,0.129968848304447,1
93,160,60,0.11960131963084,1
93,161,60,0.14163719074067,1
93,162,60,0.122292804645625,1
70,172,61,0.13225039238163,1
70,173,61,0.153044228068342,1
70,175,61,0.131788209265303,1
71,168,61,0.175931024872836,1
71,169,61,0.152526363928344,1
71,170,61,0.137881677636268,1
71,171,61,0.144891492193963,1
71,172,61,0.16103425475849,1
71,173,61,0.1642620935933,1
71,174,61,0.138450865359422,1
71,182,61,0.118800363179712,1
72,167,61,0.115060619299231,1
72,168,61,0.143621969564997,1
72,169,61,0.184352073091189,1
72,170,61,0.189973336232641,1
72,171,61,0.163547355580054,1
72,172,61,0.137380925282944,1
72,173,61,0.117277685033647,1
72,184,61,0.122698470580776,1
73,168,61,0.120079743045737,1
73,169,61,0.168335511425492,1
73,170,61,0.178715311593741,1
73,171,61,0.14208233273152,1
74,168,61,0.126226395744726,1
74,169,61,0.135752184679352,1
74,170,61,0.131753785485229,1
75,161,61,0.126157795498769,1
75,167,61,0.146169871026356,1
75,168,61,0.157842194043374,1
75,169,61,0.135944689335218,1
75,170,61,0.113939343862731,1
76,167,61,0.121327831778112,1
76,168,61,0.135193925888086,1
76,169,61,0.11462051780714,1
84,156,61,0.129418644889702,1
84,157,61,0.130335367936153,1
85,155,61,0.223611175360459,1
85,156,61,0.193770268575675,1
85,157,61,0.185579764291204,1
85,158,61,0.157570866821638,1
85,159,61,0.124927112974724,1
86,155,61,0.270251499218628,1
86,156,61,0.244539962157631,1
86,157,61,0.228804985364182,1
86,158,61,0.193015489217148,1
86,159,61,0.139815745274485,1
87,155,61,0.238202335795389,1
87,156,61,0.208382509601208,1
87,157,61,0.199816464605476,1
87,158,61,0.177142146022024,1
87,159,61,0.132284757277373,1
88,155,61,0.20726714615157,1
88,156,61,0.156046975658348,1
88,157,61,0.140259721355576,1
88,158,61,0.121803157877183,1
89,155,61,0.209567756975226,1
89,156,61,0.148591112291101,1
89,157,61,0.124105664776307,1
90,155,61,0.268599982155692,3
90,156,61,0.194978951913548,1
90,157,61,0.154747021606969,1
90,158,61,0.14713288893407,1
90,159,61,0.134823013485266,1
90,163,61,0.114742738125174,1
90,164,61,0.120584876393309,1
91,154,61,0.304185691408983,3
91,155,61,0.345279652995107,3
91,156,61,0.252311210003289,3
91,157,61,0.196585646223503,1
91,158,61,0.204571562787326,1
91,159,61,0.19976822656128,1
91,160,61,0.158258188290234,1
91,161,61,0.141717085001369,1
91,162,61,0.161490879193942,1
91,163,61,0.162688692484258,1
91,164,61,0.120423026920315,1
92,155,61,0.317892173650553,3
92,156,61,0.256168534116498,3
92,157,61,0.202444919832045,1
92,158,61,0.190167678079643,1
92,159,61,0.175476850025565,1
92,160,61,0.16505652566052,1
92,161,61,0.170990617700404,1
92,162,61,0.165660902660055,1
92,163,61,0.128940351020334,1
93,157,61,0.152939967471353,1
93,158,61,0.127651844082959,1
93,160,61,0.117908300891207,1
93,161,61,0.12769115526253,1
69,175,62,0.134979021632596,1
70,173,62,0.150780361067414,1
70,174,62,0.172571037821736,1
70,175,62,0.171220042831992,1
70,176,62,0.143592315415758,1
71,169,62,0.150615414278593,1
71,170,62,0.13341218023806,1
71,171,62,0.13265923807067,1
71,172,62,0.147796762661945,1
71,173,62,0.158022168113541,1
71,174,62,0.158070229504743,1
71,175,62,0.136244728556894,1
71,182,62,0.166230361251133,1
71,183,62,0.237797729778202,1
72,167,62,0.119654586396928,1
72,168,62,0.144725473710313,1
72,169,62,0.174491656278686,1
72,170,62,0.169829289141758,1
72,171,62,0.141407412303094,1
72,172,62,0.122689755699744,1
72,183,62,0.1173945586544,1
72,184,62,0.143321824351526,1
73,169,62,0.144468443604215,1
73,170,62,0.144458256614901,1
73,171,62,0.115820191842325,1
74,161,62,0.176473691093175,1
74,187,62,0.121320223922509,1
75,160,62,0.152904401335252,1
75,161,62,0.146902533430048,1
75,167,62,0.120523389374572,1
75,168,62,0.127227311608061,1
84,155,62,0.16026072662888,1
84,156,62,0.134044998369611,1
84,157,62,0.140078840466707,1
84,158,62,0.118788386106727,1
85,154,62,0.210898377986342,1
85,155,62,0.213196704097944,1
85,156,62,0.184364050164174,1
85,157,62,0.191525609643614,1
85,158,62,0.160467858152639,1
86,154,62,0.247083977253124,1
86,155,62,0.281764987640414,1
86,156,62,0.237212490186337,1
86,157,62,0.220675956321582,1
86,158,62,0.1895558345469,1
86,159,62,0.131528564694896,1
87,155,62,0.252485413408989,1
87,156,62,0.208029721795559,1
87,157,62,0.184279056520384,1
87,158,62,0.166956569932115,1
87,159,62,0.127766150346866,1
88,155,62,0.187275974561592,1
88,156,62,0.147311379119089,1
88,157,62,0.129465481486813,1
88,158,62,0.114278788478908,1
89,155,62,0.197824384124068,1
89,156,62,0.149962787457995,1
89,157,62,0.122880164073416,1
90,155,62,0.290579359638079,3
90,156,62,0.21437931345392,1
90,157,62,0.150930645657742,1
90,158,62,0.128434605275716,1
90,163,62,0.114338697397567,1
91,154,62,0.275688525064328,3
91,155,62,0.340713173103258,3
91,156,62,0.244875649953472,3
91,157,62,0.169335214271602,1
91,158,62,0.160605364843077,1
91,159,62,0.15190366212491,1
91,160,62,0.142384456458523,1
91,161,62,0.16199653072363,1
91,162,62,0.169882155494393,1
91,163,62,0.139896369700893,1
92,155,62,0.260190663696133,3
92,156,62,0.198244017422602,1
92,157,62,0.155058072198597,1
92,158,62,0.151332955186009,1
92,159,62,0.143838593242962,1
92,160,62,0.146487234018298,1
92,161,62,0.160441595740882,1
92,162,62,0.140366596416874,1
93,157,62,0.120702197534979,1
109,190,62,0.116437535171611,1
69,174,63,0.134987795397959,1
69,175,63,0.169975016084844,1
69,176,63,0.176383751165556,1
70,172,63,0.126478161591607,1
70,173,63,0.142733546328166,1
70,174,63,0.180362671422888,1
70,175,63,0.203517698133291,1
70,176,63,0.170981914596239,1
70,177,63,0.129709992784078,1
70,178,63,0.131922500871253,1
70,179,63,0.147744167177233,1
70,180,63,0.150248388241638,1
70,181,63,0.184931165158867,1
70,182,63,0.23548256274785,1
70,183,63,0.239329852971007,1
71,168,63,0.148778988638527,1
71,169,63,0.137047533976024,1
71,170,63,0.123841097475803,1
71,171,63,0.114382177587794,1
71,172,63,0.123607244242502,1
71,173,63,0.143732884091423,1
71,174,63,0.16905490130091,1
71,175,63,0.154658129820448,1
71,176,63,0.11500714054955,1
71,181,63,0.134382111166269,1
71,182,63,0.201837916591334,1
71,183,63,0.257545744410534,1
71,184,63,0.268566535855517,1
72,166,63,0.115378041175505,1
72,167,63,0.12028840556211,1
72,168,63,0.132919424376926,1
72,169,63,0.143892154430707,1
72,170,63,0.132569345250517,1
72,174,63,0.118956971947222,1
72,183,63,0.122125926450738,1
72,184,63,0.14898680322053,1
72,185,63,0.154378747222191,1
73,161,63,0.127947726070845,1
73,169,63,0.118403317910663,1
73,186,63,0.159497432596048,1
73,187,63,0.201367454338028,1
74,160,63,0.178660914248491,1
74,161,63,0.177022693267561,1
74,162,63,0.119135026388189,1
74,187,63,0.131737144773205,1
75,159,63,0.142479613537894,1
75,160,63,0.155918560708662,1
75,161,63,0.151248043980283,1
76,159,63,0.117327595392852,1
76,160,63,0.115994524793554,1
83,155,63,0.178287198951501,1
83,156,63,0.121955786063897,1
84,154,63,0.193056861348316,1
84,155,63,0.192838506471011,1
84,156,63,0.147844093887439,1
84,157,63,0.139676754698899,1
84,158,63,0.117598757738461,1
85,154,63,0.189927406454231,1
85,155,63,0.20506230480433,1
85,156,63,0.177575440485418,1
85,157,63,0.180182815121383,1
85,158,63,0.150651557481141,1
86,154,63,0.231996845872571,1
86,155,63,0.264401199582176,1
86,156,63,0.218950527646005,1
86,157,63,0.196372814696474,1
86,158,63,0.168817161701744,1
87,155,63,0.252729359416674,1
87,156,63,0.205317344620031,1
87,157,63,0.167079932606176,1
87,158,63,0.148104598169084,1
88,155,63,0.174224898481057,1
88,156,63,0.148804815306233,1
88,157,63,0.12850368837319,1
89,155,63,0.178275221878516,1
89,156,63,0.15072868417827,1
89,157,63,0.124314197747151,1
90,155,63,0.27042768113786,1
90,156,63,0.210563655893535,1
90,157,63,0.141483773503916,1
91,155,63,0.294048918652851,3
91,156,63,0.22470037061327,1
91,157,63,0.149341463547914,1
91,158,63,0.126715288793728,1
91,159,63,0.117535916380104,1
91,160,63,0.127137077258786,1
91,161,63,0.161118683112699,1
91,162,63,0.145539184507598,1
92,157,63,0.134191090395551,1
92,158,63,0.12382473940857,1
92,159,63,0.117472851261288,1
92,160,63,0.123163162169615,1
92,161,63,0.135349886927952,1
108,193,63,0.124338552306575,1
109,190,63,0.122611451315989,1
109,191,63,0.1504323428926,1
69,174,64,0.144275067460245,1
69,175,64,0.203330233976184,1
69,176,64,0.235412985021993,1
69,177,64,0.194220957470533,1
69,179,64,0.20233428795041,1
69,180,64,0.157748721055878,1
69,181,64,0.141800677198074,1
70,171,64,0.116573711076162,1
70,172,64,0.120549851993056,1
70,173,64,0.132622670900937,1
70,174,64,0.172339469300489,1
70,175,64,0.212086946436645,1
70,176,64,0.194665039543419,1
70,177,64,0.145129785305844,1
70,178,64,0.152370449995944,1
70,179,64,0.182853843719477,1
70,180,64,0.194457707812933,1
70,181,64,0.240277584506317,1
70,182,64,0.261956510576709,1
70,183,64,0.232869276125023,1
71,168,64,0.122356446830888,1
71,169,64,0.117263175934417,1
71,173,64,0.125377448563594,1
71,174,64,0.164148764809292,1
71,175,64,0.158956061830997,1
71,176,64,0.119721584989074,1
71,180,64,0.118557677296717,1
71,181,64,0.167418541064849,1
71,182,64,0.216390472458668,1
71,183,64,0.239243599202527,1
71,184,64,0.238556348395129,1
72,174,64,0.123689482099587,1
72,183,64,0.123624320698577,1
72,184,64,0.14367377599967,1
72,185,64,0.140240831262097,1
72,186,64,0.139203477774557,1
73,161,64,0.119929823538262,1
73,186,64,0.133416349248716,1
73,187,64,0.176161003517138,1
74,160,64,0.156536127798407,1
74,161,64,0.154525357430246,1
74,162,64,0.125924695984908,1
74,187,64,0.13652597190002,1
74,188,64,0.11769993279649,1
75,159,64,0.166270049290425,1
75,160,64,0.150316988487595,1
75,161,64,0.139960070770487,1
75,162,64,0.124910154287312,1
75,163,64,0.120248764630283,1
75,164,64,0.129294139859614,1
75,165,64,0.124814278819099,1
76,158,64,0.14328589313257,1
76,159,64,0.151917629488293,1
76,160,64,0.132189788627862,1
76,161,64,0.11652331786544,1
77,159,64,0.122767200372262,1
77,160,64,0.125538085019364,1
82,155,64,0.116672165678085,1
83,154,64,0.196720514895899,1
83,155,64,0.193776604529722,1
83,156,64,0.140570253765088,1
84,154,64,0.192069700864771,1
84,155,64,0.219308355950412,1
84,156,64,0.170627065838995,1
84,157,64,0.135194208532877,1
85,154,64,0.170803977923934,1
85,155,64,0.206079425635638,1
85,156,64,0.183199070776988,1
85,157,64,0.158284427148258,1
85,158,64,0.125093390549432,1
86,154,64,0.19801450985295,1
86,155,64,0.228928642459899,1
86,156,64,0.197762131609024,1
86,157,64,0.163533341109206,1
86,158,64,0.132918541111957,1
87,155,64,0.226863498300221,1
87,156,64,0.189365638156821,1
87,157,64,0.146130654061714,1
87,158,64,0.121007807214395,1
88,155,64,0.161764479350867,1
88,156,64,0.146246938839153,1
88,157,64,0.12409007220538,1
89,155,64,0.158062127020757,1
89,156,64,0.144716405523294,1
89,157,64,0.121085487424238,1
90,156,64,0.183196173667888,1
90,157,64,0.129069072168542,1
91,157,64,0.132153680755913,1
91,161,64,0.139062061164521,1
92,157,64,0.121227751968645,1
108,193,64,0.129855872826426,1
109,190,64,0.12028264667451,1
109,191,64,0.141725387692082,1
68,174,65,0.148967748250923,1
68,175,65,0.183136335410427,1
68,176,65,0.233478846722578,1
68,177,65,0.216724158187244,1
69,173,65,0.162246836239094,1
69,174,65,0.158999330037632,1
69,175,65,0.221033101567746,1
69,176,65,0.266009990174325,1
69,177,65,0.209493068089413,1
69,178,65,0.201109493859495,1
69,179,65,0.217632390113123,1
69,180,65,0.181235549196257,1
69,181,65,0.160945763385421,1
69,182,65,0.129419080633754,1
70,170,65,0.1450069054833,1
70,171,65,0.138288273943853,1
70,172,65,0.132157932204632,1
70,173,65,0.133163075962954,1
70,174,65,0.1591792687772,1
70,175,65,0.196554625957777,1
70,176,65,0.198060039217907,1
70,177,65,0.15480320903589,1
70,178,65,0.157099862832483,1
70,179,65,0.195498771013345,1
70,180,65,0.228691621249575,1
70,181,65,0.26612698156374,1
70,182,65,0.233071461364954,1
70,183,65,0.182862535046776,1
70,184,65,0.15363276518276,1
71,170,65,0.114599496100868,1
71,173,65,0.117068527888891,1
71,174,65,0.154001593080253,1
71,175,65,0.15500098972784,1
71,176,65,0.125116767628956,1
71,179,65,0.115501922031681,1
71,180,65,0.146550040046056,1
71,181,65,0.189555587232709,1
71,182,65,0.19497607835818,1
71,183,65,0.186205704732859,1
71,184,65,0.175964447619278,1
71,185,65,0.143533325092667,1
72,174,65,0.123113298917876,1
72,183,65,0.122728996218118,1
72,184,65,0.132914666522957,1
72,185,65,0.12597448857545,1
73,186,65,0.114643388481415,1
73,187,65,0.140651349266146,1
74,160,65,0.143434104994437,1
74,161,65,0.12984103397494,1
74,162,65,0.12682271736774,1
74,163,65,0.118459564223915,1
74,164,65,0.114162056180551,1
74,187,65,0.130459460775922,1
75,159,65,0.199365999471077,1
75,160,65,0.15272705350626,1
75,161,65,0.131260864747967,1
75,162,65,0.142706930610421,1
75,163,65,0.150669823400709,1
75,164,65,0.154849044599369,1
75,165,65,0.14071187058185,1
76,158,65,0.220911917613943,1
76,159,65,0.197703671244916,1
76,160,65,0.14686793299698,1
76,161,65,0.131480632849222,1
76,162,65,0.126726700577132,1
76,163,65,0.120158542057875,1
77,157,65,0.123248685772387,1
77,158,65,0.14368589439505,1
77,159,65,0.147203691454018,1
77,160,65,0.154577375848511,1
77,161,65,0.144564907915741,1
78,159,65,0.136712105271241,1
78,160,65,0.157567168885632,1
78,161,65,0.126219317848105,1
79,159,65,0.140134380167983,1
79,160,65,0.130877998825894,1
82,155,65,0.116438689304504,1
82,156,65,0.115118526150626,1
82,157,65,0.118348355275834,1
83,154,65,0.170888312063214,1
83,155,65,0.180845699592492,1
83,156,65,0.165169630684069,1
83,157,65,0.136967945913847,1
84,154,65,0.179335292941069,1
84,155,65,0.227784001720741,1
84,156,65,0.213078275930846,1
84,157,65,0.149146002898617,1
85,154,65,0.16605383780278,1
85,155,65,0.21980399714378,1
85,156,65,0.21619328061003,1
85,157,65,0.150900449772655,1
86,154,65,0.176262508327422,1
86,155,65,0.20417913404985,1
86,156,65,0.192946052813686,1
86,157,65,0.143446082067422,1
87,155,65,0.19221236582263,1
87,156,65,0.171240181273294,1
87,157,65,0.131801446462978,1
88,155,65,0.160876621403616,1
88,156,65,0.146200090465176,1
88,157,65,0.12068264793699,1
89,156,65,0.135236699466338,1
89,157,65,0.114877865888627,1
90,156,65,0.140834927057388,1
91,156,65,0.1460020742359,1
91,157,65,0.115278891738472,1
108,193,65,0.119969582238752,1
109,191,65,0.116705635531993,1
68,173,66,0.23160660763222,1
68,174,66,0.20523631978017,1
68,175,66,0.240331663876177,1
68,176,66,0.277890163103945,1
68,177,66,0.247898465323583,1
68,178,66,0.264311530522481,1
69,171,66,0.211760209059161,1
69,172,66,0.213243434703259,1
69,173,66,0.190866493769708,1
69,174,66,0.17595987819517,1
69,175,66,0.218281318997715,1
69,176,66,0.247818500401685,1
69,177,66,0.198993756282369,1
69,178,66,0.190440430302197,1
69,179,66,0.210519257107739,1
69,180,66,0.187087250279795,1
69,181,66,0.154118372486075,1
70,169,66,0.135485403327992,1
70,170,66,0.163673226726628,1
70,171,66,0.162398934466827,1
70,172,66,0.141347856690424,1
70,173,66,0.129838808147217,1
70,174,66,0.141814515015928,1
70,175,66,0.167332157750841,1
70,176,66,0.173028415976629,1
70,177,66,0.145027785867176,1
70,178,66,0.139528531060166,1
70,179,66,0.175570240574997,1
70,180,66,0.224716881779765,1
70,181,66,0.235414068493689,1
70,182,66,0.170584763335393,1
70,183,66,0.123646779182533,1
71,174,66,0.137053493070351,1
71,175,66,0.143886631080431,1
71,176,66,0.122218457288933,1
71,179,66,0.11695826109011,1
71,180,66,0.155204411538729,1
71,181,66,0.176973407082268,1
71,182,66,0.15034542961961,1
71,183,66,0.129598571852404,1
71,184,66,0.116190421186903,1
72,183,66,0.118177037202367,1
72,184,66,0.120836689347655,1
74,160,66,0.137384140367433,1
74,162,66,0.123846797479072,1
74,163,66,0.134555101554744,1
74,164,66,0.129431057706739,1
75,159,66,0.226431546399581,1
75,160,66,0.170229914578149,1
75,161,66,0.131563883516806,1
75,162,66,0.152243789799331,1
75,163,66,0.175500015121496,1
75,164,66,0.164312734118213,1
75,165,66,0.131981385202547,1
76,158,66,0.279796931966174,1
76,159,66,0.228711830352075,1
76,160,66,0.161478584145568,1
76,161,66,0.140422159671883,1
76,162,66,0.150289607273543,1
76,163,66,0.151476491631971,1
76,164,66,0.126803733059331,1
77,157,66,0.161118812658228,1
77,158,66,0.175883764308539,1
77,159,66,0.157893164320542,1
77,160,66,0.162760978889355,1
77,161,66,0.155933093361625,1
77,162,66,0.120518796396731,1
78,159,66,0.157000831164113,1
78,160,66,0.187974601821796,1
78,161,66,0.148023891304612,1
79,158,66,0.12247177768216,1
79,159,66,0.176784565031808,1
79,160,66,0.167435370206733,1
80,158,66,0.1251510971941,1
80,159,66,0.130107462020313,1
81,157,66,0.125495617639635,1
81,158,66,0.119490310889484,1
82,156,66,0.126405333450662,1
82,157,66,0.141075434220125,1
82,158,66,0.122869317579592,1
83,155,66,0.151545009439865,1
83,156,66,0.176301383762942,1
83,157,66,0.163289088902998,1
83,158,66,0.124210361117348,1
84,154,66,0.152314910294668,1
84,155,66,0.20309059830155,1
84,156,66,0.236878474705505,1
84,157,66,0.171700409429822,1
85,154,66,0.154608820081422,1
85,155,66,0.209414634160129,1
85,156,66,0.232405950652669,1
85,157,66,0.149933757482668,1
86,154,66,0.155682528755103,1
86,155,66,0.178246509878577,1
86,156,66,0.181532090688654,1
86,157,66,0.125024919849004,1
87,155,66,0.154807236724151,1
87,156,66,0.14697861198608,1
87,157,66,0.114014539153794,1
88,156,66,0.14168144820407,1
89,156,66,0.127182194433424,1
109,192,66,0.117765400396023,1
68,172,67,0.22493743893106,1
68,173,67,0.261996716798117,1
68,174,67,0.263180009212336,1
68,175,67,0.285898314391265,1
68,176,67,0.305202388273105,1
68,177,67,0.284833214606819,1
68,178,67,0.294715559944296,1
68,179,67,0.283150064881112,1
69,169,67,0.175953954431442,1
69,170,67,0.217591971908123,1
69,171,67,0.236624706791361,1
69,172,67,0.225757980310775,1
69,173,67,0.213644366338174,1
69,174,67,0.202020151819823,1
69,175,67,0.21307438956498,1
69,176,67,0.219909635634122,1
69,177,67,0.193432095861053,1
69,178,67,0.184568131479573,1
69,179,67,0.198918973181626,1
69,180,67,0.195938754736773,1
69,181,67,0.149184536805015,1
70,168,67,0.119875273093752,1
70,169,67,0.14094852670932,1
70,170,67,0.175978108784138,1
70,171,67,0.183937503845147,1
70,172,67,0.15509127118458,1
70,173,67,0.134186827169965,1
70,174,67,0.132733868072152,1
70,175,67,0.141374425300703,1
70,176,67,0.144728111728355,1
70,177,67,0.133371302735276,1
70,178,67,0.124837891435948,1
70,179,67,0.15034262672544,1
70,180,67,0.199002117857413,1
70,181,67,0.187680215495925,1
70,182,67,0.124616133044294,1
71,168,67,0.115269882435784,1
71,169,67,0.113938625473889,1
71,170,67,0.113966465985725,1
71,174,67,0.116387106630291,1
71,175,67,0.123544744413267,1
71,179,67,0.115051268467422,1
71,180,67,0.149919189499105,1
71,181,67,0.153151691972954,1
71,182,67,0.120096548633888,1
72,164,67,0.128240357643643,1
72,183,67,0.119608044221473,1
72,184,67,0.119416528822373,1
73,163,67,0.136424054899417,1
73,164,67,0.1428345800638,1
73,185,67,0.117774857219629,1
74,160,67,0.142244806378426,1
74,162,67,0.124729108522315,1
74,163,67,0.153216123208256,1
74,164,67,0.153146922342119,1
74,165,67,0.117594188314353,1
75,159,67,0.249812842041415,1
75,160,67,0.205685936980199,1
75,161,67,0.147859651127767,1
75,162,67,0.156490457111056,1
75,163,67,0.178761724223667,1
75,164,67,0.155126083601241,1
76,158,67,0.29280909728059,1
76,159,67,0.243149820864443,1
76,160,67,0.185581919457729,1
76,161,67,0.150362258761494,1
76,162,67,0.163678702969438,1
76,163,67,0.162159345899658,1
76,164,67,0.121920349473324,1
77,157,67,0.191244919813202,1
77,158,67,0.198379262954718,1
77,159,67,0.168667960583111,1
77,160,67,0.163508291714673,1
77,161,67,0.155149378242701,1
77,162,67,0.139991244135474,1
78,157,67,0.118083905743992,1
78,158,67,0.131342914175192,1
78,159,67,0.172420246826158,1
78,160,67,0.204399385002622,1
78,161,67,0.165439662450517,1
79,158,67,0.134604069764648,1
79,159,67,0.200439672814159,1
79,160,67,0.206322241064161,1
79,161,67,0.133302726043051,1
80,156,67,0.116893641424948,1
80,157,67,0.125116555645363,1
80,158,67,0.13400602871916,1
80,159,67,0.14653538962443,1
80,160,67,0.124852671403102,1
81,156,67,0.133545258826785,1
81,157,67,0.149017246419809,1
81,158,67,0.131497721082164,1
82,156,67,0.133711983922411,1
82,157,67,0.15716714406942,1
82,158,67,0.135902763691337,1
83,155,67,0.135318372033843,1
83,156,67,0.173360370505865,1
83,157,67,0.182350524009309,1
83,158,67,0.144645991639932,1
84,155,67,0.179232622221025,1
84,156,67,0.235946265079924,1
84,157,67,0.203729304866229,1
84,158,67,0.140965014322083,1
85,155,67,0.194318022402238,1
85,156,67,0.236857794528355,1
85,157,67,0.178948057801613,1
85,158,67,0.115406164332131,1
86,155,67,0.174052720696354,1
86,156,67,0.19064862174392,1
86,157,67,0.143507863507816,1
87,155,67,0.148135382897484,1
87,156,67,0.14760151399624,1
87,157,67,0.117638375116556,1
88,155,67,0.166698856767774,1
88,156,67,0.14991712854751,1
88,157,67,0.115162748283428,1
89,156,67,0.139640799926211,1
68,170,68,0.228559296380291,1
68,171,68,0.209413432919771,1
68,172,68,0.210801360162102,1
68,173,68,0.256234531675012,1
68,174,68,0.290543887716907,1
68,175,68,0.285324027285021,1
68,176,68,0.288046273474474,1
68,177,68,0.290886877169829,1
68,178,68,0.282491667396047,1
68,179,68,0.263039275660543,1
68,180,68,0.209950599343567,1
69,169,68,0.190770618301495,1
69,170,68,0.231826670155131,1
69,171,68,0.241548167053246,1
69,172,68,0.216479788212374,1
69,173,68,0.211731709042815,1
69,174,68,0.214846972813057,1
69,175,68,0.198391346019499,1
69,176,68,0.190686708129401,1
69,177,68,0.186237408056827,1
69,178,68,0.174527363737182,1
69,179,68,0.181271692398805,1
69,180,68,0.191917743959433,1
69,181,68,0.144465381618987,1
70,168,68,0.130512904195005,1
70,169,68,0.151468106503195,1
70,170,68,0.178698647327984,1
70,171,68,0.188778632035017,1
70,172,68,0.158839847714756,1
70,173,68,0.132390855065499,1
70,174,68,0.122586555020718,1
70,175,68,0.117685035060673,1
70,176,68,0.118832443363401,1
70,177,68,0.118404978448806,1
70,179,68,0.130313557179842,1
70,180,68,0.163148897087053,1
70,181,68,0.1450078476326,1
71,168,68,0.126995378003961,1
71,169,68,0.12161652987758,1
71,170,68,0.115064894301683,1
71,180,68,0.131421041905953,1
71,181,68,0.1262338740548,1
72,163,68,0.130919653601851,1
72,164,68,0.135141436395171,1
73,162,68,0.117682644356822,1
73,163,68,0.157983104248161,1
73,164,68,0.171160534326786,1
73,165,68,0.125533739355715,1
74,160,68,0.142041243245143,1
74,161,68,0.119186644393001,1
74,162,68,0.128801890403729,1
74,163,68,0.16647241118335,1
74,164,68,0.172348455049444,1
74,165,68,0.121493756046832,1
75,159,68,0.243705194323475,1
75,160,68,0.22163817340239,1
75,161,68,0.169438650487953,1
75,162,68,0.157003975587404,1
75,163,68,0.165125879625918,1
75,164,68,0.138510833162412,1
76,158,68,0.257497553473803,1
76,159,68,0.2332231709561,1
76,160,68,0.205844288723914,1
76,161,68,0.172146210925182,1
76,162,68,0.168836016464624,1
76,163,68,0.155392488092882,1
77,158,68,0.203631392000154,1
77,159,68,0.179577001344164,1
77,160,68,0.168781442466381,1
77,161,68,0.160324050838753,1
77,162,68,0.155978422519856,1
77,163,68,0.123477168754674,1
78,157,68,0.137979402072483,1
78,158,68,0.155888729906429,1
78,159,68,0.179550091204763,1
78,160,68,0.201337423329068,1
78,161,68,0.171554988685258,1
78,162,68,0.126238467032641,1
79,157,68,0.117940510620425,1
79,158,68,0.143445257686784,1
79,159,68,0.198529606429378,1
79,160,68,0.221508722088474,1
79,161,68,0.152966017899518,1
80,156,68,0.133231181580529,1
80,157,68,0.14072619125122,1
80,158,68,0.1382619055403,1
80,159,68,0.153365677632876,1
80,160,68,0.147427852326388,1
81,156,68,0.148178286021265,1
81,157,68,0.163919115917245,1
81,158,68,0.138744109329266,1
81,159,68,0.113793134068128,1
82,155,68,0.116654641701092,1
82,156,68,0.141606252913008,1
82,157,68,0.165251161929179,1
82,158,68,0.142699840936934,1
83,155,68,0.130098134742236,1
83,156,68,0.163115851200331,1
83,157,68,0.188146167209455,1
83,158,68,0.158625120112259,1
83,159,68,0.116307789436038,1
84,155,68,0.160993718784827,1
84,156,68,0.211428925811301,1
84,157,68,0.224453810141276,1
84,158,68,0.169360675856454,1
84,159,68,0.114770131116092,1
85,155,68,0.176593720914085,1
85,156,68,0.219908952575879,1
85,157,68,0.213438483162237,1
85,158,68,0.147224936920749,1
86,155,68,0.163249777723426,1
86,156,68,0.185657044087594,1
86,157,68,0.169702746713807,1
86,158,68,0.115429235213132,1
87,155,68,0.145213636593606,1
87,156,68,0.147183823880639,1
87,157,68,0.12571346611169,1
88,155,68,0.167313785839477,1
88,156,68,0.152070493212332,1
88,157,68,0.115816435021988,1
89,155,68,0.170574387916219,1
89,156,68,0.151301616944894,1
89,157,68,0.11738936505638,1
90,156,68,0.124200998508672,1
67,174,69,0.240728520715366,1
67,175,69,0.210799028342583,1
67,176,69,0.20252832359889,1
68,169,69,0.238237124658318,1
68,170,69,0.244158627228171,1
68,171,69,0.221313579414565,1
68,172,69,0.191550187963496,1
68,173,69,0.225067267104697,1
68,174,69,0.275880982612729,1
68,175,69,0.255482060582273,1
68,176,69,0.248650182696882,1
68,177,69,0.273328346851134,1
68,178,69,0.247155721922373,1
68,179,69,0.218446148017873,1
68,180,69,0.206823841351856,1
69,168,69,0.164496370793786,1
69,169,69,0.205391986398379,1
69,170,69,0.22819086889625,1
69,171,69,0.222214415468433,1
69,172,69,0.190754884408173,1
69,173,69,0.192710974786295,1
69,174,69,0.209910699320682,1
69,175,69,0.185820141908412,1
69,176,69,0.17179170369706,1
69,177,69,0.183657179097589,1
69,178,69,0.166842322552539,1
69,179,69,0.159647187227395,1
69,180,69,0.173675943414136,1
69,181,69,0.141312867620769,1
70,167,69,0.118793485489817,1
70,168,69,0.147645159062595,1
70,169,69,0.166125229166041,1
70,170,69,0.171177610782861,1
70,171,69,0.172921623353394,1
70,172,69,0.150947875213079,1
70,173,69,0.129838266411369,1
70,174,69,0.120881747637961,1
70,180,69,0.125950746413073,1
70,181,69,0.113906474629003,1
71,168,69,0.134090775048759,1
71,169,69,0.12867915190358,1
71,170,69,0.11715440479765,1
71,171,69,0.115999494631115,1
72,163,69,0.132691070940168,1
72,164,69,0.138085617629272,1
72,165,69,0.116240590637165,1
73,162,69,0.136301740366453,1
73,163,69,0.175668742284386,1
73,164,69,0.191129954044784,1
73,165,69,0.142743132697301,1
74,161,69,0.137691999428304,1
74,162,69,0.14360187823116,1
74,163,69,0.181933505175085,1
74,164,69,0.187989864640468,1
74,165,69,0.132775263757052,1
75,160,69,0.217348332098961,1
75,161,69,0.192988249325492,1
75,162,69,0.161649101392129,1
75,163,69,0.155007678987875,1
75,164,69,0.132239946301258,1
76,159,69,0.20671544707481,1
76,160,69,0.218558169569727,1
76,161,69,0.204441899489817,1
76,162,69,0.173738761218761,1
76,163,69,0.145273463074201,1
77,158,69,0.193144481233281,1
77,159,69,0.183885532534347,1
77,160,69,0.177667947769881,1
77,161,69,0.174374335137015,1
77,162,69,0.170041143188887,1
77,163,69,0.139149657495754,1
78,157,69,0.158916738874559,1
78,158,69,0.178469634386716,1
78,159,69,0.18058858704833,1
78,160,69,0.183879008150439,1
78,161,69,0.16733200465158,1
78,162,69,0.14489754550322,1
79,157,69,0.142741377944228,1
79,158,69,0.151071626523726,1
79,159,69,0.178322011368162,1
79,160,69,0.203437874533789,1
79,161,69,0.156741398577298,1
80,156,69,0.14882714424466,1
80,157,69,0.153347129068519,1
80,158,69,0.138838536242929,1
80,159,69,0.149609198825441,1
80,160,69,0.157366349762187,1
81,156,69,0.160430183957477,1
81,157,69,0.169983471874818,1
81,158,69,0.144612038934508,1
81,159,69,0.128259612819976,1
82,156,69,0.154575432665579,1
82,157,69,0.168442939999504,1
82,158,69,0.149597056876328,1
82,159,69,0.126571469702975,1
83,155,69,0.135866879579847,1
83,156,69,0.15877608776083,1
83,157,69,0.182968020437856,1
83,158,69,0.166994762309393,1
83,159,69,0.136138465892641,1
84,155,69,0.157982138545127,1
84,156,69,0.189675946805874,1
84,157,69,0.222919402236417,1
84,158,69,0.186699626503753,1
84,159,69,0.131880928533359,1
85,155,69,0.170850920512842,1
85,156,69,0.203520077060276,1
85,157,69,0.23043266604981,1
85,158,69,0.175197067013855,1
86,155,69,0.153946394908098,1
86,156,69,0.176717801976987,1
86,157,69,0.189914287025219,1
86,158,69,0.141856782188931,1
87,155,69,0.141750342871684,1
87,156,69,0.145440152839228,1
87,157,69,0.135610143895405,1
88,155,69,0.159499387555847,1
88,156,69,0.149785981364852,1
88,157,69,0.117933939129053,1
89,156,69,0.159283588258521,1
89,157,69,0.123855606575034,1
90,157,69,0.123821759861406,1
68,174,70,0.232866779429376,1
68,175,70,0.213226146263591,1
68,176,70,0.200213980949176,1
69,169,70,0.201673558645826,1
69,170,70,0.208709435408552,1
69,171,70,0.192467947374178,1
69,172,70,0.165627950988263,1
69,173,70,0.167833593162408,1
69,174,70,0.182081540383958,1
69,175,70,0.162799383250225,1
69,176,70,0.14957035872052,1
69,177,70,0.161279519775196,1
69,178,70,0.149018812743022,1
69,179,70,0.137555434887167,1
69,180,70,0.144751312154885,1
70,168,70,0.15082532514279,1
70,169,70,0.164983697519575,1
70,170,70,0.157433383684932,1
70,171,70,0.149860693804398,1
70,172,70,0.135815544219825,1
70,173,70,0.121644876794665,1
71,168,70,0.128086127803118,1
71,169,70,0.125061074828418,1
71,170,70,0.114753761271992,1
72,164,70,0.138700016741993,1
72,165,70,0.12211883677725,1
73,163,70,0.177730388714785,1
73,164,70,0.187025068425948,1
73,165,70,0.148684644162928,1
74,162,70,0.160002035984639,1
74,163,70,0.184237389967561,1
74,164,70,0.183176541631835,1
74,165,70,0.138331118183302,1
75,161,70,0.196397604999949,1
75,162,70,0.168114035678629,1
75,163,70,0.153696442698621,1
75,164,70,0.132375568693095,1
76,160,70,0.211530536613382,1
76,161,70,0.214736034732899,1
76,162,70,0.178215748703909,1
76,163,70,0.143698919609132,1
77,159,70,0.178447199456493,1
77,160,70,0.18044161175742,1
77,161,70,0.182879057990137,1
77,162,70,0.175614898451851,1
77,163,70,0.146210030140298,1
78,158,70,0.181908667764145,1
78,159,70,0.171046663806929,1
78,160,70,0.162711527827934,1
78,161,70,0.157512147366471,1
78,162,70,0.150315433941249,1
78,163,70,0.117667993935197,1
79,158,70,0.154014959823456,1
79,159,70,0.154519904741169,1
79,160,70,0.165283395212129,1
79,161,70,0.1434024605548,1
80,157,70,0.155770796367713,1
80,158,70,0.138886738956526,1
80,159,70,0.140646662073375,1
80,160,70,0.146932894191263,1
80,161,70,0.11452995370561,1
81,157,70,0.163270940752093,1
81,158,70,0.14634837298824,1
81,159,70,0.137347384767839,1
81,160,70,0.121159057507757,1
82,157,70,0.163054211082333,1
82,158,70,0.154550300832982,1
82,159,70,0.1416690471639,1
83,156,70,0.152598485457313,1
83,157,70,0.171078096262974,1
83,158,70,0.169747840334712,1
83,159,70,0.149297476952437,1
84,156,70,0.168809742276001,1
84,157,70,0.201769728535696,1
84,158,70,0.188055226248204,1
84,159,70,0.143611806129416,1
85,156,70,0.18106240570852,1
85,157,70,0.217132038173252,1
85,158,70,0.185473136544097,1
85,159,70,0.122380012340272,1
86,156,70,0.161958114585894,1
86,157,70,0.187628326623189,1
86,158,70,0.156124856074917,1
87,156,70,0.138625316079314,1
87,157,70,0.139331021236139,1
87,158,70,0.11451021567776,1
88,156,70,0.139157135805828,1
88,157,70,0.119210869406895,1
89,157,70,0.126520876285527,1
91,158,70,0.116035119651548,1
