x,y,z,signal,mito.p
477,1009,38,0.201637474327609,1
478,1009,38,0.157988344953646,1
479,1020,38,0.132857678267131,1
460,997,39,0.208983506640127,1
464,1002,39,0.175706404702682,1
465,1002,39,0.128231348340955,1
468,1002,39,0.114107022884524,1
475,1005,39,0.124729073191716,1
477,1008,39,0.143240351990747,1
477,1009,39,0.154202494641761,1
477,1010,39,0.141741003816741,1
478,1007,39,0.134353858464114,1
478,1008,39,0.121547552771902,1
478,1009,39,0.119207595438075,1
478,1010,39,0.128208724980872,1
479,1015,39,0.116038746926356,1
479,1021,39,0.155168032798855,1
480,1013,39,0.12747681629662,1
480,1014,39,0.129649436137776,1
480,1015,39,0.139810751883192,1
480,1016,39,0.142114259815947,1
480,1017,39,0.117577064750812,1
480,1020,39,0.169841737289393,1
459,997,40,0.199181785729057,1
460,996,40,0.217916565895948,1
460,997,40,0.270284309568025,1
460,998,40,0.191805745961312,1
461,997,40,0.188634824721131,1
463,1000,40,0.174498993266365,1
463,1001,40,0.185942008920458,1
464,999,40,0.119429353829729,1
464,1000,40,0.231133483807139,1
464,1001,40,0.264041204334377,1
464,1002,40,0.13914312133498,1
465,999,40,0.113864454770191,1
465,1000,40,0.168863644992867,1
465,1001,40,0.180770586739494,1
466,1000,40,0.130233250728823,1
466,1001,40,0.115753322795707,1
467,1001,40,0.115729309765406,1
476,1004,40,0.114167037794979,1
479,1021,40,0.116994734044914,1
480,1020,40,0.129191363147774,1
480,1021,40,0.163307013293444,1
481,1014,40,0.117717704087675,1
481,1015,40,0.134852090568059,1
481,1016,40,0.134553876760653,1
481,1017,40,0.125942832358947,1
459,997,41,0.235445018098217,1
460,996,41,0.228422284318236,1
460,997,41,0.293016063928222,1
460,998,41,0.208163742533585,1
460,999,41,0.132431414592894,1
461,997,41,0.187778776089645,1
461,999,41,0.12337418005924,1
462,999,41,0.125884489763501,1
462,1000,41,0.131594079401893,1
463,999,41,0.140495611986739,1
463,1000,41,0.203330799265764,1
463,1001,41,0.165836177760585,1
464,999,41,0.138552829467491,1
464,1000,41,0.236955660286965,1
464,1001,41,0.21170471646535,1
465,999,41,0.121592752384603,1
465,1000,41,0.157388973122271,1
465,1001,41,0.142707931644053,1
466,1000,41,0.124968508659624,1
479,1004,41,0.126808738227491,1
479,1005,41,0.120076551514981,1
480,1005,41,0.171347362533115,1
480,1006,41,0.132008401333744,1
481,1008,41,0.127946065532702,1
482,1012,41,0.11482830883541,1
482,1014,41,0.117191525480098,1
482,1015,41,0.131291920344291,1
482,1016,41,0.118758578858226,1
458,997,42,0.136373638134963,1
459,996,42,0.190696011853746,1
459,997,42,0.248167920023584,1
459,998,42,0.188888521974078,1
459,999,42,0.120026170081126,1
460,996,42,0.220210534567034,1
460,997,42,0.287383801193684,1
460,998,42,0.212866951842698,1
460,999,42,0.133543598288642,1
461,997,42,0.182110617466751,1
461,998,42,0.156029899202273,1
461,999,42,0.126756024974117,1
462,998,42,0.114388513541842,1
462,999,42,0.147782100463453,1
462,1000,42,0.141500308224144,1
463,999,42,0.176800522685589,1
463,1000,42,0.214653737991483,1
463,1001,42,0.134784385363937,1
464,999,42,0.155930867533903,1
464,1000,42,0.219859913704777,1
464,1001,42,0.151174344351236,1
465,999,42,0.1211530041985,1
465,1000,42,0.13646225905356,1
479,1004,42,0.119500262341473,1
480,1004,42,0.187897545785865,1
480,1005,42,0.157095116755381,1
481,1005,42,0.221023256107553,1
481,1007,42,0.139597696595704,1
482,1009,42,0.13491029184111,1
483,1012,42,0.124488648467043,1
458,997,43,0.145731170981349,1
458,998,43,0.129112293267712,1
459,996,43,0.20310734500537,1
459,997,43,0.243886346080268,1
459,998,43,0.187085106890136,1
459,999,43,0.129982862775295,1
459,1000,43,0.117158927114294,1
460,996,43,0.211794432632509,1
460,997,43,0.260225735203851,1
460,998,43,0.203251446740912,1
460,999,43,0.13538102496234,1
460,1000,43,0.116404395069959,1
461,997,43,0.170108553971352,1
461,998,43,0.159468826587906,1
461,999,43,0.12969059628535,1
462,998,43,0.131421442319406,1
462,999,43,0.16311953735947,1
462,1000,43,0.135310257772991,1
463,998,43,0.116486256067324,1
463,999,43,0.195552732614543,1
463,1000,43,0.191482777181031,1
464,999,43,0.1584179532579,1
464,1000,43,0.174147300709278,1
465,999,43,0.118512501237749,1
480,1004,43,0.167542480805357,1
480,1005,43,0.13332526696507,1
481,1005,43,0.214364451048702,1
481,1006,43,0.172287286006096,1
482,1005,43,0.24132516031377,1
482,1008,43,0.146624352072149,1
483,1010,43,0.125140545121932,1
483,1011,43,0.118743904882868,1
457,999,44,0.11416372849556,1
458,997,44,0.151979705350343,1
458,998,44,0.138946494775923,1
458,999,44,0.127910416958537,1
459,996,44,0.208198248751723,1
459,997,44,0.226603724184285,1
459,998,44,0.175734068561524,1
459,999,44,0.136572902712062,1
459,1000,44,0.11673372335802,1
460,996,44,0.208803367693832,1
460,997,44,0.2232413582062,1
460,998,44,0.177479659232135,1
460,999,44,0.131023078041336,1
461,997,44,0.156224582578397,1
461,998,44,0.1554439294447,1
461,999,44,0.126679934641219,1
462,998,44,0.151488951556473,1
462,999,44,0.162442520648851,1
463,998,44,0.136142799779424,1
463,999,44,0.183759001883262,1
463,1000,44,0.145031860662902,1
464,999,44,0.139353538604426,1
464,1000,44,0.119947005986134,1
480,1004,44,0.129598183215817,1
481,1004,44,0.178652317136122,1
481,1005,44,0.178319491118783,1
481,1006,44,0.13783445240257,1
482,1004,44,0.163873621882887,1
482,1005,44,0.20365642961782,1
482,1006,44,0.201024464885106,1
482,1007,44,0.147728221300319,1
483,1005,44,0.16881988215785,1
483,1009,44,0.119198244606266,1
484,1010,44,0.161378963633885,1
484,1011,44,0.152033937819465,1
456,999,45,0.119508965445638,1
457,999,45,0.138780688275866,1
457,1000,45,0.123792623894282,1
458,998,45,0.154815657183526,1
458,999,45,0.146455224495806,1
458,1000,45,0.127732444955634,1
459,997,45,0.198153217783746,1
459,998,45,0.165531486676737,1
459,999,45,0.141022673859286,1
459,1000,45,0.115309217169088,1
460,997,45,0.178200073694918,1
460,998,45,0.149810712783996,1
460,999,45,0.123729087700816,1
461,997,45,0.136216110771885,1
461,998,45,0.14288252368634,1
461,999,45,0.119059077377686,1
462,997,45,0.116880733979528,1
462,998,45,0.160754966375163,1
462,999,45,0.146022648421255,1
463,998,45,0.147824638504379,1
463,999,45,0.150684202954411,1
464,998,45,0.114313330027645,1
464,999,45,0.113990526123492,1
481,1004,45,0.139227632127253,1
481,1005,45,0.137994923982213,1
482,1004,45,0.140866595050758,1
482,1005,45,0.161955547229049,1
482,1006,45,0.147033975034363,1
483,1004,45,0.140213132072656,1
483,1005,45,0.16510849697132,1
483,1008,45,0.120485950716735,1
484,1010,45,0.115904726188331,1
485,1011,45,0.121440830809865,1
453,1001,46,0.129450783957722,1
453,1002,46,0.122567052530194,1
455,999,46,0.128002111639228,1
456,999,46,0.138155277793192,1
456,1000,46,0.118296230865772,1
457,998,46,0.162850553734119,1
457,999,46,0.149647391202719,1
457,1000,46,0.129954456973879,1
458,998,46,0.168575276645655,1
458,999,46,0.151998819204281,1
458,1000,46,0.127983881050259,1
459,997,46,0.172000743073153,1
459,998,46,0.155950016718439,1
459,999,46,0.135674763560567,1
460,997,46,0.148509851913915,1
460,998,46,0.130927720755238,1
461,996,46,0.129947920813105,1
461,997,46,0.129322003925182,1
461,998,46,0.130346214429978,1
462,997,46,0.134678311129544,1
462,998,46,0.15440185343379,1
462,999,46,0.11942651560496,1
463,997,46,0.130518804405,1
463,998,46,0.147426085796449,1
463,999,46,0.114314896350858,1
464,998,46,0.114999638685743,1
482,1004,46,0.122558196326767,1
482,1005,46,0.125482121350903,1
483,1004,46,0.154113390871647,1
483,1005,46,0.158698784410708,1
483,1006,46,0.133226152858636,1
484,1009,46,0.115937960504913,1
452,1001,47,0.147690971072342,1
452,1002,47,0.128970829550211,1
453,1000,47,0.120054811419867,1
453,1001,47,0.167188456428751,1
453,1002,47,0.155937568570804,1
454,999,47,0.11563659049735,1
454,1001,47,0.11804749167352,1
455,999,47,0.154657281886077,1
455,1000,47,0.128660202925769,1
456,998,47,0.168488540025658,1
456,999,47,0.157521050677363,1
456,1000,47,0.133062678178098,1
457,997,47,0.179390903303543,1
457,998,47,0.181083168323735,1
457,999,47,0.158779467721447,1
457,1000,47,0.134438145495928,1
458,997,47,0.179829520910486,1
458,998,47,0.178120544517073,1
458,999,47,0.154001781510113,1
458,1000,47,0.123823785482403,1
459,997,47,0.157872495920258,1
459,998,47,0.151770159569001,1
459,999,47,0.130152543864352,1
460,996,47,0.153669261691296,1
460,997,47,0.142293350621145,1
460,998,47,0.127309796779338,1
461,996,47,0.14297463055735,1
461,997,47,0.149701258588986,1
461,998,47,0.131558925456111,1
462,997,47,0.168232075209141,1
462,998,47,0.149278716404487,1
463,997,47,0.160752716993707,1
463,998,47,0.142204034867438,1
464,997,47,0.122779153891515,1
482,1004,47,0.118207892591965,1
483,1004,47,0.172149708654461,1
483,1005,47,0.162265985423631,1
484,1004,47,0.223176750317905,1
484,1008,47,0.118886758270587,1
485,1009,47,0.128239639254801,1
452,1001,48,0.162258565997888,1
452,1002,48,0.135160208719987,1
453,1000,48,0.119911062990312,1
453,1001,48,0.186570104528638,1
453,1002,48,0.169087499666715,1
454,999,48,0.119441118919121,1
454,1000,48,0.115237178078183,1
454,1001,48,0.124794152154662,1
455,998,48,0.170745022931443,1
455,999,48,0.167510447729133,1
455,1000,48,0.138001413035521,1
456,997,48,0.171131987202974,1
456,998,48,0.188317214414997,1
456,999,48,0.171888591975771,1
456,1000,48,0.140299868692652,1
457,996,48,0.161555357536709,1
457,997,48,0.199658654597609,1
457,998,48,0.195437625523729,1
457,999,48,0.167257127335906,1
457,1000,48,0.133483524493856,1
458,996,48,0.168434236895339,1
458,997,48,0.187816108755686,1
458,998,48,0.182926200785771,1
458,999,48,0.154060877824999,1
458,1000,48,0.116004817774664,1
459,997,48,0.150717837684446,1
459,998,48,0.148151740964718,1
459,999,48,0.123914008054811,1
460,996,48,0.149222552529299,1
460,997,48,0.147219107371951,1
460,998,48,0.126164155006548,1
461,996,48,0.176858123338461,1
461,997,48,0.186981364475262,1
461,998,48,0.136109730338969,1
462,997,48,0.211665287517115,1
462,998,48,0.145806001189558,1
463,998,48,0.132280717812246,1
464,997,48,0.124687971928473,1
482,1004,48,0.115671037831157,1
483,1004,48,0.184004596652223,1
483,1005,48,0.166229689969756,1
484,1004,48,0.224023130142192,1
484,1007,48,0.113817971479068,1
485,1008,48,0.141945756413516,1
452,1001,49,0.154755442066344,1
452,1002,49,0.128345277745143,1
453,1000,49,0.11531793205012,1
453,1001,49,0.177676780419575,1
453,1002,49,0.15734415036929,1
454,999,49,0.11670149007507,1
454,1000,49,0.114320478585465,1
454,1001,49,0.122880847131659,1
455,997,49,0.145428128658778,1
455,998,49,0.169976547077458,1
455,999,49,0.16307411398631,1
455,1000,49,0.135904553775009,1
456,996,49,0.143468787865569,1
456,997,49,0.182647560130088,1
456,998,49,0.192464661628492,1
456,999,49,0.172844108019678,1
456,1000,49,0.13895727060855,1
457,996,49,0.174991219168517,1
457,997,49,0.205695900209054,1
457,998,49,0.197415173352174,1
457,999,49,0.168107746832047,1
457,1000,49,0.1299701908672,1
458,996,49,0.178758014510795,1
458,997,49,0.189027029698148,1
458,998,49,0.180624164961298,1
458,999,49,0.151558870811452,1
459,996,49,0.156865809392456,1
459,997,49,0.151820034597607,1
459,998,49,0.146967812599721,1
459,999,49,0.121686248925832,1
460,996,49,0.144089888015192,1
460,997,49,0.14606068769927,1
460,998,49,0.123089227003243,1
461,996,49,0.193371032809501,1
461,997,49,0.194649058335906,1
461,998,49,0.129626212157513,1
462,997,49,0.219391005997817,1
462,998,49,0.1328296964329,1
463,998,49,0.116634326606796,1
464,997,49,0.119529009672011,1
483,1004,49,0.175696182382769,1
483,1005,49,0.156460779408083,1
484,1004,49,0.197742770440895,1
485,1008,49,0.113919205421429,1
486,1009,49,0.13273459823786,1
446,1014,50,0.131428296455568,1
446,1015,50,0.168022694303925,1
452,1001,50,0.128879488175508,1
452,1020,50,0.132305037041071,1
452,1021,50,0.146860160265249,1
453,1001,50,0.145562891339377,1
453,1002,50,0.125956587738737,1
453,1021,50,0.118107412369045,1
455,997,50,0.141153903480007,1
455,998,50,0.153404564845263,1
455,999,50,0.142783692224696,1
455,1000,50,0.120063502747166,1
456,996,50,0.146767853187512,1
456,997,50,0.176402594151571,1
456,998,50,0.180831626237313,1
456,999,50,0.158492430160121,1
456,1000,50,0.123695488301379,1
457,996,50,0.171139477289915,1
457,997,50,0.192044027296326,1
457,998,50,0.184505407889879,1
457,999,50,0.154663676724456,1
457,1000,50,0.115466108581388,1
458,996,50,0.173833141024959,1
458,997,50,0.177460309840872,1
458,998,50,0.166343807803804,1
458,999,50,0.136966732896622,1
459,996,50,0.156122241610608,1
459,997,50,0.147501493071104,1
459,998,50,0.135408959689106,1
460,996,50,0.138509573037722,1
460,997,50,0.135467502491278,1
461,995,50,0.117253601342148,1
461,996,50,0.183593772449651,1
461,997,50,0.170812363052711,1
462,996,50,0.230270993229809,1
462,997,50,0.193803867975111,1
463,997,50,0.158811088607352,1
483,1004,50,0.150836713372462,1
483,1005,50,0.129173697848385,1
484,1003,50,0.113887443213129,1
484,1004,50,0.169884640413174,1
484,1005,50,0.17145289503166,1
485,1004,50,0.185997477960537,1
485,1007,50,0.135289966232427,1
486,1008,50,0.131461448334087,1
445,1014,51,0.141660355836601,1
445,1015,51,0.184322171627758,1
445,1016,51,0.150636377100534,1
446,1014,51,0.173226903280554,1
446,1015,51,0.22298584731585,1
446,1016,51,0.15888947542917,1
452,1020,51,0.159605037823055,1
452,1021,51,0.160265908450033,1
455,997,51,0.144520073385893,1
455,998,51,0.147708907239654,1
455,999,51,0.132077307778224,1
456,996,51,0.155654735350733,1
456,997,51,0.177396620548144,1
456,998,51,0.178656709907237,1
456,999,51,0.151981601425811,1
456,1000,51,0.114061493519567,1
457,995,51,0.155954621473147,1
457,996,51,0.17123260874829,1
457,997,51,0.184967944312193,1
457,998,51,0.180799345846898,1
457,999,51,0.149080511745351,1
458,996,51,0.167760505930406,1
458,997,51,0.168696660806184,1
458,998,51,0.157517835592874,1
458,999,51,0.126695268121088,1
459,996,51,0.156353327280338,1
459,997,51,0.144861001887219,1
459,998,51,0.12581782092361,1
460,995,51,0.133498469337139,1
460,996,51,0.139459601061953,1
460,997,51,0.127682852571818,1
461,995,51,0.128588316934126,1
461,996,51,0.165798515342289,1
461,997,51,0.144669227397061,1
462,996,51,0.20540378681837,1
462,997,51,0.163884904120763,1
463,997,51,0.142584486531929,1
464,996,51,0.122728902003188,1
483,1004,51,0.123039799495554,1
484,1003,51,0.139714063811207,1
484,1004,51,0.158497765080536,1
484,1005,51,0.146908610293038,1
485,1004,51,0.203602067603169,1
485,1006,51,0.165665896051349,1
445,1014,52,0.139912657106929,1
445,1015,52,0.189380512338905,1
445,1016,52,0.172712183563847,1
445,1017,52,0.130236183168522,1
446,1014,52,0.176760858200029,1
446,1015,52,0.232577398271665,1
446,1016,52,0.176408270601107,1
446,1017,52,0.121969788757879,1
452,1020,52,0.150647965536932,1
452,1021,52,0.144102748353147,1
455,996,52,0.123867147903967,1
455,997,52,0.140303272207001,1
455,998,52,0.139549152352985,1
455,999,52,0.120162817060326,1
456,995,52,0.132187291932215,1
456,996,52,0.154915890092254,1
456,997,52,0.168405124481947,1
456,998,52,0.165097108741647,1
456,999,52,0.136634507499461,1
457,995,52,0.15591120016725,1
457,996,52,0.166240418694918,1
457,997,52,0.174150280256442,1
457,998,52,0.167461079105776,1
457,999,52,0.134815582282656,1
458,995,52,0.147030536189415,1
458,996,52,0.159574311978986,1
458,997,52,0.161300989002385,1
458,998,52,0.145386061692502,1
459,995,52,0.145063987954056,1
459,996,52,0.148137502733411,1
459,997,52,0.136819522068387,1
460,995,52,0.151134126352962,1
460,996,52,0.138226504280326,1
460,997,52,0.11662225531888,1
461,994,52,0.12284876694797,1
461,995,52,0.151067457513071,1
461,996,52,0.149759683622496,1
461,997,52,0.121224242462499,1
462,995,52,0.160894592901527,1
462,996,52,0.173732849231899,1
462,997,52,0.133638013425439,1
463,996,52,0.16674007579968,1
463,997,52,0.122562294676225,1
484,1003,52,0.165665589852826,1
484,1004,52,0.147869037290175,1
484,1005,52,0.121420774806626,1
485,1004,52,0.212394534629593,1
485,1006,52,0.14057499984219,1
445,1014,53,0.119989814894985,1
445,1015,53,0.167222715332698,1
445,1016,53,0.172360914973946,1
445,1017,53,0.135097025832509,1
446,1014,53,0.144052661340948,1
446,1015,53,0.191250254733617,1
446,1016,53,0.166311103446203,1
446,1017,53,0.13161130895723,1
452,1020,53,0.116846804827837,1
455,996,53,0.12731898273502,1
455,997,53,0.143138906064794,1
455,998,53,0.14575685632666,1
455,999,53,0.121444352092876,1
456,995,53,0.132449374313939,1
456,996,53,0.15664673612631,1
456,997,53,0.166299550340403,1
456,998,53,0.161820101490207,1
456,999,53,0.13079811634206,1
457,995,53,0.15590352165045,1
457,996,53,0.169229363797668,1
457,997,53,0.171896859335885,1
457,998,53,0.15920700329724,1
457,999,53,0.125909068083383,1
458,995,53,0.142431128179507,1
458,996,53,0.158235541376418,1
458,997,53,0.158900121716268,1
458,998,53,0.136946146934402,1
459,995,53,0.141394587295739,1
459,996,53,0.140232764108709,1
459,997,53,0.128754747608095,1
460,994,53,0.161136595726279,1
460,995,53,0.170274819769194,1
460,996,53,0.138178289789862,1
461,994,53,0.149378077825112,1
461,995,53,0.180454483872241,1
461,996,53,0.143790355198766,1
462,995,53,0.168050970559813,1
462,996,53,0.143693254936462,1
463,996,53,0.14006970161849,1
484,1003,53,0.177578537801244,1
484,1004,53,0.139589087706468,1
485,1003,53,0.186654532882848,1
485,1004,53,0.207888517169116,1
485,1005,53,0.19512478484843,1
485,1006,53,0.132989002102783,1
445,1015,54,0.133811875302018,1
445,1016,54,0.148396793997831,1
445,1017,54,0.119384660622276,1
446,1015,54,0.128308781236607,1
446,1016,54,0.132296216168243,1
446,1017,54,0.120183438353146,1
455,996,54,0.131452062171679,1
455,997,54,0.14682625466729,1
455,998,54,0.152057821304238,1
455,999,54,0.121227398662657,1
456,995,54,0.135940567432028,1
456,996,54,0.156966254284777,1
456,997,54,0.164251117553947,1
456,998,54,0.156869307121735,1
456,999,54,0.124190599535765,1
457,994,54,0.151309071701236,1
457,995,54,0.155093756103361,1
457,996,54,0.173350595706871,1
457,997,54,0.170887652558703,1
457,998,54,0.149018435883301,1
457,999,54,0.117215008551418,1
458,995,54,0.14140610507094,1
458,996,54,0.160648256189992,1
458,997,54,0.156703677274671,1
458,998,54,0.125652261737744,1
459,995,54,0.139176650073219,1
459,996,54,0.135470823567563,1
459,997,54,0.120388049627526,1
460,994,54,0.168772810023413,1
460,995,54,0.185105180134707,1
460,996,54,0.140251300896201,1
461,994,54,0.1812718337212,1
461,995,54,0.209682251668994,1
461,996,54,0.146278312410867,1
462,994,54,0.154259447566989,1
462,995,54,0.171314387307591,1
462,996,54,0.124299335341933,1
463,995,54,0.157938787900429,1
464,995,54,0.130507969688042,1
483,1001,54,0.121626269345976,1
483,1002,54,0.115849210040787,1
484,1002,54,0.184225577770703,1
484,1003,54,0.174828615976082,1
484,1004,54,0.132348293470839,1
485,1003,54,0.204315651483522,1
485,1004,54,0.190531912999296,1
485,1005,54,0.160846366634197,1
485,1006,54,0.124438961868297,1
486,1005,54,0.182187473295956,1
454,998,55,0.118458692735812,1
455,996,55,0.132540115068463,1
455,997,55,0.14698881075226,1
455,998,55,0.156012799192465,1
455,999,55,0.12246438181015,1
456,995,55,0.140853098762025,1
456,996,55,0.157133603554315,1
456,997,55,0.164535316890504,1
456,998,55,0.157192688092335,1
456,999,55,0.121445588663833,1
457,994,55,0.1397488997816,1
457,995,55,0.161817757893821,1
457,996,55,0.182251786762595,1
457,997,55,0.174694430361929,1
457,998,55,0.146788933778116,1
458,995,55,0.151474360019178,1
458,996,55,0.169415956466673,1
458,997,55,0.157010229103388,1
458,998,55,0.119839353651662,1
459,994,55,0.134548577170837,1
459,995,55,0.138706611787098,1
459,996,55,0.134075182477832,1
459,997,55,0.116147058765338,1
460,994,55,0.158666621788955,1
460,995,55,0.173804028611567,1
460,996,55,0.133647882439364,1
461,994,55,0.190732237494358,1
461,995,55,0.206932824472215,1
461,996,55,0.139934868276693,1
462,994,55,0.170617526577325,1
462,995,55,0.164298731424231,1
463,995,55,0.138650459688776,1
464,995,55,0.118675752157828,1
483,1001,55,0.124608207213302,1
484,1001,55,0.183379786789729,1
484,1002,55,0.178802165982399,1
484,1003,55,0.164266168389025,1
484,1004,55,0.123413196817156,1
485,1002,55,0.195549541083786,1
485,1003,55,0.223061384136034,1
485,1004,55,0.1767482333994,1
485,1005,55,0.13160677486372,1
486,1007,55,0.117788471277024,1
443,1013,56,0.116360373143883,1
444,1020,56,0.124849833178334,1
454,997,56,0.114389019947091,1
454,998,56,0.119507929081407,1
455,996,56,0.130286753032237,1
455,997,56,0.140484094211538,1
455,998,56,0.145633434768268,1
455,999,56,0.117662282155061,1
456,995,56,0.14471440345603,1
456,996,56,0.151354118214676,1
456,997,56,0.158770116889637,1
456,998,56,0.149818261755267,1
456,999,56,0.114226251878528,1
457,994,56,0.135317194347217,1
457,995,56,0.170796110977274,1
457,996,56,0.179648286715629,1
457,997,56,0.1707058412974,1
457,998,56,0.142859346813543,1
458,994,56,0.141698618875076,1
458,995,56,0.169395394058185,1
458,996,56,0.168750339762592,1
458,997,56,0.14802163014629,1
459,994,56,0.135090619217264,1
459,995,56,0.142429608963759,1
459,996,56,0.130132746952171,1
460,994,56,0.14650554704533,1
460,995,56,0.152280097878007,1
460,996,56,0.120694424803249,1
461,993,56,0.118111027866986,1
461,994,56,0.181741836676723,1
461,995,56,0.183559384000176,1
461,996,56,0.125232993522064,1
462,994,56,0.174570643720683,1
462,995,56,0.156387244655163,1
463,994,56,0.153092254128946,1
463,995,56,0.126508310369229,1
464,994,56,0.124562324542358,1
483,1001,56,0.124477472220963,1
484,1001,56,0.176479744402432,1
484,1002,56,0.177774752169982,1
484,1003,56,0.1634391732866,1
484,1004,56,0.119322184346773,1
485,1002,56,0.213544215867509,1
485,1003,56,0.243747331950949,1
485,1004,56,0.174827108537201,1
485,1005,56,0.117434953305667,1
441,1013,57,0.248978474620712,1
442,1012,57,0.216650411450732,1
442,1013,57,0.225066160079269,1
442,1014,57,0.16388740081641,1
443,1011,57,0.138385056230768,1
443,1012,57,0.148106023169901,1
443,1013,57,0.131506907037846,1
444,1020,57,0.117096898359709,1
444,1021,57,0.117098111376933,1
454,997,57,0.115112095981648,1
454,998,57,0.120246456364496,1
455,996,57,0.132843298713429,1
455,997,57,0.135509781441147,1
455,998,57,0.132625591563769,1
456,995,57,0.148524879195261,1
456,996,57,0.150199891106384,1
456,997,57,0.155601845444364,1
456,998,57,0.14417926265323,1
457,995,57,0.175906905850738,1
457,996,57,0.169725205197762,1
457,997,57,0.164818927383748,1
457,998,57,0.141925311773691,1
458,994,57,0.152633156551579,1
458,995,57,0.187066346342185,1
458,996,57,0.159954233684494,1
458,997,57,0.134673659267372,1
459,994,57,0.14281371145679,1
459,995,57,0.15093137582345,1
459,996,57,0.125360925620233,1
460,993,57,0.138526284410943,1
460,994,57,0.138011317380045,1
460,995,57,0.132130291899523,1
461,993,57,0.13254135163942,1
461,994,57,0.162701211293091,1
461,995,57,0.15314534424204,1
462,993,57,0.126961778604524,1
462,994,57,0.167859596483107,1
462,995,57,0.151702678125338,1
463,994,57,0.141806188771483,1
463,995,57,0.126445704548197,1
464,995,57,0.115534119984032,1
483,1000,57,0.123013454645733,1
483,1001,57,0.13221642789934,1
483,1002,57,0.117192608951794,1
484,1001,57,0.168665463887464,1
484,1002,57,0.187597070820138,1
484,1003,57,0.181337854833447,1
484,1004,57,0.131586247785831,1
485,1002,57,0.233016086539805,1
485,1003,57,0.268320988194021,1
485,1004,57,0.194964466368049,1
485,1005,57,0.125603564395763,1
486,1004,57,0.173947046875414,1
440,1013,58,0.175721561529557,1
441,1012,58,0.22957549861603,1
441,1013,58,0.279869924983246,1
441,1014,58,0.234906556219132,1
442,1011,58,0.210575880280712,1
442,1012,58,0.282787007648085,1
442,1013,58,0.247163423992906,1
442,1014,58,0.159431682351725,1
442,1021,58,0.120774024642292,1
443,1010,58,0.116876847613663,1
443,1011,58,0.165244025148226,1
443,1012,58,0.187584528457573,1
443,1013,58,0.144360249533895,1
443,1020,58,0.1373610106021,1
443,1021,58,0.150240085550925,1
453,998,58,0.11817346881189,1
453,999,58,0.122111711773164,1
454,997,58,0.115074162695429,1
454,998,58,0.125289652025635,1
454,999,58,0.120302090280703,1
455,995,58,0.143862135198613,1
455,996,58,0.139456503746127,1
455,997,58,0.130314617097805,1
455,998,58,0.121908407730938,1
456,995,58,0.155629862609194,1
456,996,58,0.153997694937521,1
456,997,58,0.147613502846092,1
456,998,58,0.132540715688642,1
457,994,58,0.137594286768955,1
457,995,58,0.172101670816991,1
457,996,58,0.15691603772705,1
457,997,58,0.151576206358584,1
457,998,58,0.133511671204215,1
458,994,58,0.158047570814061,1
458,995,58,0.191059669706951,1
458,996,58,0.148866478977964,1
458,997,58,0.119780657750228,1
459,994,58,0.147776353352718,1
459,995,58,0.154796955519907,1
459,996,58,0.12099101340311,1
460,993,58,0.154945473580296,1
460,994,58,0.135179322573926,1
460,995,58,0.118431900365073,1
461,993,58,0.157200484377798,1
461,994,58,0.15362841951911,1
461,995,58,0.129290477254208,1
462,993,58,0.142806751328831,1
462,994,58,0.159654170909086,1
462,995,58,0.142765072999141,1
463,993,58,0.1146255229753,1
463,994,58,0.131893753540715,1
463,995,58,0.123562810126108,1
464,994,58,0.12931650412864,1
464,995,58,0.116410307056821,1
465,995,58,0.116649648309798,1
482,1000,58,0.118349662507988,1
483,1000,58,0.128496056963854,1
483,1001,58,0.14452162793224,1
483,1002,58,0.132204250619628,1
484,1001,58,0.160408031672045,1
484,1002,58,0.196501241423026,1
484,1003,58,0.199498395001559,1
484,1004,58,0.150729590996972,1
485,1002,58,0.234002823056165,1
485,1003,58,0.26981862872242,1
485,1004,58,0.216289709590957,1
485,1005,58,0.145454214417541,1
486,1004,58,0.169253647695894,1
440,1013,59,0.192290446445925,1
441,1011,59,0.168827513567185,1
441,1012,59,0.251258193283625,1
441,1013,59,0.272374114485649,1
441,1014,59,0.242765376842291,1
441,1015,59,0.179345727244574,1
441,1016,59,0.151532561292229,1
441,1017,59,0.143634405935767,1
441,1021,59,0.125860830039187,1
442,1010,59,0.135167121740481,1
442,1011,59,0.241573534423168,1
442,1012,59,0.322621221404238,1
442,1013,59,0.249114874285721,1
442,1014,59,0.158291363722485,1
442,1015,59,0.115470736889828,1
442,1016,59,0.116801228355415,1
442,1020,59,0.16205504997207,1
442,1021,59,0.166701306355956,1
443,1010,59,0.119218677469225,1
443,1011,59,0.180978966611077,1
443,1012,59,0.219132315353576,1
443,1013,59,0.163645456875989,1
443,1014,59,0.116282257189989,1
443,1019,59,0.11744400971582,1
443,1020,59,0.16144291201767,1
443,1021,59,0.147139460425443,1
453,998,59,0.135120296920236,1
453,999,59,0.128901098725093,1
454,997,59,0.115564869381834,1
454,998,59,0.134870026735371,1
454,999,59,0.122739030108171,1
455,995,59,0.146763177771608,1
455,996,59,0.141184911968867,1
455,997,59,0.126161905625093,1
455,998,59,0.119075058585199,1
456,995,59,0.162440636350249,1
456,996,59,0.156525717048634,1
456,997,59,0.138513365188657,1
456,998,59,0.122177944869003,1
457,995,59,0.158731300338448,1
457,996,59,0.146030220946259,1
457,997,59,0.138380910773845,1
457,998,59,0.122408276819293,1
458,994,59,0.1563554000088,1
458,995,59,0.173570493353655,1
458,996,59,0.138883088127986,1
459,994,59,0.152677131370189,1
459,995,59,0.147718246294597,1
459,996,59,0.117315453443739,1
460,994,59,0.13753175160912,1
461,993,59,0.172923189676606,1
461,994,59,0.149211847357869,1
462,993,59,0.153755056161991,1
462,994,59,0.15108433376242,1
462,995,59,0.126644651149907,1
463,993,59,0.121462618012444,1
463,994,59,0.129109678803403,1
463,995,59,0.117162365959241,1
464,993,59,0.123218478110433,1
464,994,59,0.134761514689662,1
464,995,59,0.114481868760675,1
465,994,59,0.140952271752791,1
465,995,59,0.118215512224434,1
482,999,59,0.115455709608481,1
482,1000,59,0.122571621954302,1
482,1001,59,0.11995108078186,1
483,1000,59,0.129141499896034,1
483,1001,59,0.157073341329668,1
483,1002,59,0.153415175801762,1
483,1003,59,0.115920683842111,1
484,1001,59,0.158003595995451,1
484,1002,59,0.204394956900909,1
484,1003,59,0.202186511832594,1
484,1004,59,0.159466400553456,1
485,1003,59,0.239336565784774,1
485,1004,59,0.218703142793373,1
485,1005,59,0.156051215330201,1
486,1005,59,0.1279413194556,1
440,1013,60,0.198055823099786,1
440,1015,60,0.241230662738909,1
440,1016,60,0.199332129203717,1
440,1017,60,0.159337549859719,1
441,1011,60,0.191157205713306,1
441,1012,60,0.263667712797845,1
441,1013,60,0.251093317156002,1
441,1014,60,0.227505596602384,1
441,1015,60,0.202252956912027,1
441,1016,60,0.17813380526848,1
441,1017,60,0.150780066645757,1
441,1020,60,0.116963207373939,1
441,1021,60,0.158866145457112,1
441,1022,60,0.131507425219961,1
442,1010,60,0.144393260090019,1
442,1011,60,0.242826569439371,1
442,1012,60,0.314380453454574,1
442,1013,60,0.244349176924239,1
442,1014,60,0.16922123775995,1
442,1015,60,0.138753566152872,1
442,1016,60,0.138652979938155,1
442,1017,60,0.132383058780035,1
442,1018,60,0.122636053189604,1
442,1019,60,0.130673116683589,1
442,1020,60,0.176758856132765,1
442,1021,60,0.177432198461112,1
442,1022,60,0.114025727176739,1
443,1010,60,0.116403570689321,1
443,1011,60,0.173777177356497,1
443,1012,60,0.221047540005779,1
443,1013,60,0.187113241823628,1
443,1014,60,0.137368041391257,1
443,1019,60,0.136025926158672,1
443,1020,60,0.154354439770232,1
443,1021,60,0.119735893881579,1
453,998,60,0.15001194409776,1
453,999,60,0.127706088328947,1
454,997,60,0.118565285152321,1
454,998,60,0.144240113721189,1
454,999,60,0.119815517274355,1
455,996,60,0.144117740303894,1
455,997,60,0.124630971895781,1
455,998,60,0.117026755344271,1
456,995,60,0.173413260412234,1
456,996,60,0.163084854488338,1
456,997,60,0.133206273508392,1
457,995,60,0.151543454893519,1
457,996,60,0.144301447640665,1
457,997,60,0.12871368167545,1
458,994,60,0.153487980388974,1
458,995,60,0.151161272029688,1
458,996,60,0.129987856166589,1
459,994,60,0.163202116745677,1
459,995,60,0.139170090358713,1
461,994,60,0.148030851432571,1
462,994,60,0.14864424951166,1
463,993,60,0.133105310433955,1
463,994,60,0.133259151637894,1
464,993,60,0.126767790063509,1
464,994,60,0.134006970868461,1
465,994,60,0.13885103149803,1
466,994,60,0.119226673961415,1
482,1000,60,0.125095121748772,1
482,1001,60,0.1299740654562,1
483,1001,60,0.163256207892404,1
483,1002,60,0.167522495463316,1
483,1003,60,0.12908434676408,1
484,1002,60,0.202412439234903,1
484,1003,60,0.190067763146304,1
484,1004,60,0.15780622749382,1
485,1003,60,0.201967462120181,1
485,1004,60,0.209739557900209,1
485,1005,60,0.154234492387387,1
486,1005,60,0.130402507850695,1
440,1012,61,0.197794753528561,1
440,1015,61,0.239020592463051,1
440,1016,61,0.214824384783573,1
440,1017,61,0.141083536704111,1
440,1021,61,0.118362334416083,1
441,1011,61,0.209277669205539,1
441,1012,61,0.266967637831025,1
441,1013,61,0.230975155617155,1
441,1014,61,0.213748921356819,1
441,1015,61,0.230934949395748,1
441,1016,61,0.209170028647934,1
441,1017,61,0.147713865300349,1
441,1018,61,0.117032408240075,1
441,1020,61,0.12897297293987,1
441,1021,61,0.166518918028206,1
441,1022,61,0.141577458475005,1
442,1010,61,0.148398501643438,1
442,1011,61,0.216361689797531,1
442,1012,61,0.267296542151901,1
442,1013,61,0.237013649576424,1
442,1014,61,0.194142064243465,1
442,1015,61,0.170555262285415,1
442,1016,61,0.15329867904073,1
442,1017,61,0.140054179708761,1
442,1018,61,0.149471963002928,1
442,1019,61,0.14988882873789,1
442,1020,61,0.160417665148644,1
442,1021,61,0.157721881577674,1
443,1011,61,0.151077196981467,1
443,1012,61,0.195751396571462,1
443,1013,61,0.199063428223156,1
443,1014,61,0.155708755836262,1
443,1018,61,0.125052595484712,1
443,1019,61,0.135954558349143,1
443,1020,61,0.126006686527802,1
444,1013,61,0.118836930349446,1
453,997,61,0.114628019670947,1
453,998,61,0.150863411528271,1
453,999,61,0.120543245171084,1
454,996,61,0.117447330792105,1
454,997,61,0.122517507253843,1
454,998,61,0.144911748403928,1
455,996,61,0.146935967953357,1
455,997,61,0.123763523257756,1
455,998,61,0.114036550116831,1
456,995,61,0.172640438894599,1
456,996,61,0.163784282575448,1
456,997,61,0.128675371529511,1
457,995,61,0.149750862749668,1
457,996,61,0.145106679094244,1
457,997,61,0.121728268784643,1
458,995,61,0.139165803579395,1
458,996,61,0.123127961116368,1
459,994,61,0.167991250071015,1
459,995,61,0.134371488432903,1
463,994,61,0.131934053977052,1
464,994,61,0.120768253977825,1
465,993,61,0.122619400700714,1
465,994,61,0.128920777868611,1
466,994,61,0.135845221922797,1
482,1000,61,0.12337197778525,1
482,1001,61,0.128478438771931,1
483,1001,61,0.168625316550388,1
483,1002,61,0.164600619613909,1
483,1003,61,0.127728499705437,1
484,1002,61,0.186477055508328,1
484,1003,61,0.167778548089514,1
484,1004,61,0.144439036769167,1
485,1004,61,0.191973542751768,1
485,1005,61,0.138375752506423,1
440,1015,62,0.226301105828899,1
440,1016,62,0.221168629744652,1
440,1017,62,0.134484452134058,1
440,1019,62,0.123646308107883,1
440,1020,62,0.130518509983344,1
440,1021,62,0.137587538624588,1
441,1011,62,0.210597997235546,1
441,1012,62,0.246940864774347,1
441,1013,62,0.209955145213943,1
441,1014,62,0.214323184909331,1
441,1015,62,0.25493257555637,1
441,1016,62,0.228907915175284,1
441,1017,62,0.145276407290766,1
441,1018,62,0.133662685960251,1
441,1019,62,0.151793336441798,1
441,1020,62,0.146700677942372,1
441,1021,62,0.156245015441356,1
441,1022,62,0.133574253471514,1
442,1010,62,0.140493221282889,1
442,1011,62,0.179544061449239,1
442,1012,62,0.212947694037768,1
442,1013,62,0.225423046234375,1
442,1014,62,0.223411604584838,1
442,1015,62,0.199462475559469,1
442,1016,62,0.15937138479648,1
442,1017,62,0.138950239819394,1
442,1018,62,0.162950374452529,1
442,1019,62,0.162487013649576,1
442,1020,62,0.138550862730825,1
442,1021,62,0.128019553178157,1
443,1011,62,0.124653371495405,1
443,1012,62,0.161264351171454,1
443,1013,62,0.191840475939909,1
443,1014,62,0.166504715127498,1
443,1015,62,0.115310206425854,1
443,1018,62,0.130192962069352,1
443,1019,62,0.126209495941645,1
444,1013,62,0.116633207804501,1
450,999,62,0.116757241759939,1
452,998,62,0.117185177749185,1
453,997,62,0.121942678411751,1
453,998,62,0.142399530847334,1
453,999,62,0.119018965371208,1
454,996,62,0.131578239516775,1
454,997,62,0.125128191189227,1
454,998,62,0.135095400624965,1
455,996,62,0.148503833935257,1
455,997,62,0.120517583379507,1
456,996,62,0.154746362102459,1
456,997,62,0.119254502696384,1
457,995,62,0.147302252047738,1
457,996,62,0.136319523434504,1
459,995,62,0.127485166094798,1
465,994,62,0.11738520782259,1
466,993,62,0.13873754961476,1
466,994,62,0.141317849235196,1
467,994,62,0.120136377995575,1
480,999,62,0.115740309358491,1
481,999,62,0.124248741924485,1
482,1000,62,0.122679580487297,1
482,1001,62,0.127235873389832,1
483,1002,62,0.155094344946674,1
483,1003,62,0.121724276426982,1
484,1003,62,0.157218785627965,1
484,1004,62,0.132216663436665,1
440,1015,63,0.219481028363499,1
440,1016,63,0.221769461907443,1
440,1017,63,0.147202902403979,1
440,1018,63,0.12580107421979,1
440,1019,63,0.159512130125139,1
440,1020,63,0.159351988297752,1
441,1012,63,0.213933559066025,1
441,1013,63,0.206999175336717,1
441,1014,63,0.239473295202039,1
441,1015,63,0.274399052423919,1
441,1016,63,0.232776639295031,1
441,1017,63,0.147922928230175,1
441,1018,63,0.154010743705336,1
441,1019,63,0.195163566069021,1
441,1020,63,0.166211965786037,1
441,1021,63,0.135013033222351,1
442,1011,63,0.152752256000054,1
442,1012,63,0.181236361800029,1
442,1013,63,0.228067141139335,1
442,1014,63,0.263508042045108,1
442,1015,63,0.233851278341146,1
442,1016,63,0.170181134798105,1
442,1017,63,0.140736978860713,1
442,1018,63,0.16400434509836,1
442,1019,63,0.169052663696321,1
442,1020,63,0.12756854630791,1
443,1012,63,0.143147821152552,1
443,1013,63,0.184783919000033,1
443,1014,63,0.182041581476742,1
443,1015,63,0.133923437556087,1
443,1017,63,0.118970150260566,1
443,1018,63,0.133101000100904,1
443,1019,63,0.116673343364711,1
444,1013,63,0.114506729725347,1
451,999,63,0.115893349735525,1
452,998,63,0.121001377045418,1
453,997,63,0.125265368127409,1
453,998,63,0.12771262448972,1
453,999,63,0.120311205575187,1
454,997,63,0.123438022451229,1
454,998,63,0.119277820891577,1
455,996,63,0.147580374521306,1
455,997,63,0.118024126370863,1
456,996,63,0.141265018213159,1
456,997,63,0.114865759270113,1
457,996,63,0.125817514725087,1
459,995,63,0.124298251870237,1
466,994,63,0.135027660090245,1
466,995,63,0.114604100855575,1
467,994,63,0.124543140027222,1
480,999,63,0.121555890793213,1
481,1000,63,0.115247353290631,1
483,1003,63,0.121241578009632,1
440,1015,64,0.211612008974161,1
440,1017,64,0.177932797715175,1
440,1018,64,0.165953416464191,1
440,1019,64,0.188218076754831,1
440,1020,64,0.183906153827166,1
441,1014,64,0.258533116877672,1
441,1015,64,0.273621614374711,1
441,1016,64,0.21535566277424,1
441,1017,64,0.155937050388688,1
441,1018,64,0.176667185005807,1
441,1019,64,0.231446041837647,1
441,1020,64,0.198049934666657,1
441,1021,64,0.12762388580246,1
442,1012,64,0.172679785404769,1
442,1013,64,0.232751790107225,1
442,1014,64,0.291306651790757,1
442,1015,64,0.26199787093101,1
442,1016,64,0.181036767470675,1
442,1017,64,0.148696103053798,1
442,1018,64,0.167013664179738,1
442,1019,64,0.185876717973919,1
442,1020,64,0.141154621868849,1
443,1011,64,0.115855310457509,1
443,1012,64,0.14294557702829,1
443,1013,64,0.180114615288879,1
443,1014,64,0.19294730116151,1
443,1015,64,0.157090641546203,1
443,1016,64,0.131886911181418,1
443,1017,64,0.147047483099961,1
443,1018,64,0.141780786070963,1
443,1019,64,0.118606033109576,1
452,999,64,0.119306438676585,1
453,998,64,0.125626128871515,1
453,999,64,0.127584421523627,1
454,999,64,0.114119306156032,1
455,997,64,0.116153229843257,1
462,995,64,0.124717143226196,1
462,996,64,0.120885198259775,1
463,995,64,0.12046494078733,1
463,996,64,0.11764557078184,1
464,996,64,0.114969089494668,1
465,995,64,0.124446958360487,1
465,996,64,0.12977521306942,1
466,994,64,0.125970731755114,1
466,995,64,0.123047301359361,1
466,996,64,0.125340563418472,1
467,995,64,0.115366205424915,1
480,999,64,0.118525385129436,1
481,1000,64,0.126772241718955,1
440,1018,65,0.218721114291284,1
440,1019,65,0.211505922962901,1
440,1020,65,0.204633414888917,1
441,1014,65,0.254794527130084,1
441,1015,65,0.244360482715847,1
441,1016,65,0.182774550078957,1
441,1017,65,0.166077945048011,1
441,1018,65,0.198043904911132,1
441,1019,65,0.246778485342371,1
441,1020,65,0.228772363444645,1
441,1021,65,0.137605239254575,1
442,1013,65,0.220190066373476,1
442,1014,65,0.277907451543613,1
442,1015,65,0.259104082907631,1
442,1016,65,0.183318982829235,1
442,1017,65,0.159163428892082,1
442,1018,65,0.17228891121364,1
442,1019,65,0.19863328995992,1
442,1020,65,0.166545168663097,1
443,1009,65,0.120075856679872,1
443,1010,65,0.11953382641031,1
443,1011,65,0.138059531870508,1
443,1012,65,0.155665275646034,1
443,1013,65,0.171275676748198,1
443,1014,65,0.187047091165852,1
443,1015,65,0.174546842673974,1
443,1016,65,0.161063826469666,1
443,1017,65,0.175561690570094,1
443,1018,65,0.150457510055795,1
443,1019,65,0.121660186720801,1
444,1008,65,0.141657128975246,1
444,1009,65,0.133770738708176,1
444,1017,65,0.129766521742121,1
445,1007,65,0.120832649882528,1
445,1008,65,0.125985417507339,1
449,1001,65,0.120098692023547,1
452,999,65,0.116240955720019,1
453,998,65,0.12928193902617,1
453,999,65,0.122158889899396,1
454,998,65,0.118097343148394,1
454,999,65,0.115111860444323,1
462,995,65,0.135530520502629,1
462,996,65,0.136833984060153,1
463,995,65,0.134575334210977,1
463,996,65,0.13501124313868,1
464,995,65,0.126062685526863,1
464,996,65,0.126008912355525,1
465,994,65,0.116664793359807,1
465,995,65,0.139044866939783,1
465,996,65,0.144800480571515,1
466,994,65,0.126059340896845,1
466,995,65,0.134716103093368,1
466,996,65,0.143720094414666,1
467,995,65,0.11979245817022,1
467,996,65,0.119320040957114,1
468,996,65,0.1227112367038,1
470,998,65,0.124551642924661,1
471,998,65,0.115391042835854,1
474,996,65,0.128044991209276,1
440,1019,66,0.22505746875197,1
440,1020,66,0.212596083918746,1
441,1014,66,0.215196204005096,1
441,1015,66,0.19365837656935,1
441,1016,66,0.152389646287946,1
441,1017,66,0.171243584787643,1
441,1018,66,0.205122602359575,1
441,1019,66,0.23546946687257,1
441,1020,66,0.23424761699822,1
441,1021,66,0.141755948660023,1
442,1013,66,0.177405535635902,1
442,1014,66,0.219114226087002,1
442,1015,66,0.215897775481865,1
442,1016,66,0.171249673427499,1
442,1017,66,0.161308585081122,1
442,1018,66,0.166097494646001,1
442,1019,66,0.182811329232283,1
442,1020,66,0.175617960437078,1
442,1021,66,0.118822727448738,1
443,1011,66,0.144433195443502,1
443,1012,66,0.150370349468614,1
443,1013,66,0.145892325619235,1
443,1014,66,0.163048322649203,1
443,1015,66,0.179421452494618,1
443,1016,66,0.181967434326776,1
443,1017,66,0.18441798821164,1
443,1018,66,0.145102898720175,1
444,1008,66,0.151542512744218,1
444,1009,66,0.132040599286096,1
444,1011,66,0.117546786427661,1
444,1015,66,0.124464882750933,1
444,1016,66,0.146718578779086,1
444,1017,66,0.150495631771875,1
445,1007,66,0.158284274048997,1
445,1008,66,0.156238479280582,1
448,1002,66,0.114262618841535,1
449,1001,66,0.132237402498147,1
454,998,66,0.122455478499258,1
461,996,66,0.116599737950594,1
462,995,66,0.138848911662103,1
462,996,66,0.139009077043223,1
463,995,66,0.14240099117875,1
463,996,66,0.139722543154913,1
464,995,66,0.136611990131175,1
464,996,66,0.129458768673046,1
465,995,66,0.144179133107701,1
465,996,66,0.139249478214164,1
466,995,66,0.136034499717308,1
466,996,66,0.136899098353698,1
467,995,66,0.120031858307529,1
467,996,66,0.114263678759498,1
468,995,66,0.145430943329814,1
468,996,66,0.12488469270246,1
469,996,66,0.12799539882546,1
469,998,66,0.114254539911282,1
470,997,66,0.120183085047158,1
470,998,66,0.147534126767507,1
471,998,66,0.139054688846243,1
472,998,66,0.117122489490089,1
473,996,66,0.147634100585178,1
473,999,66,0.12066637230782,1
481,1001,66,0.135283017881334,1
482,1003,66,0.114781001163649,1
441,1015,67,0.159262919858237,1
441,1016,67,0.141273709540458,1
441,1017,67,0.175684994359823,1
441,1018,67,0.200378409555881,1
441,1019,67,0.212340007738814,1
441,1020,67,0.215559002147064,1
441,1021,67,0.143370557024105,1
442,1014,67,0.163512130973073,1
442,1015,67,0.172139521665147,1
442,1016,67,0.160310884302276,1
442,1017,67,0.164575994186562,1
442,1018,67,0.15803123630056,1
442,1019,67,0.157890973823418,1
442,1020,67,0.172472194583226,1
442,1021,67,0.14845235725284,1
443,1011,67,0.13557052651731,1
443,1012,67,0.137413982946532,1
443,1013,67,0.12710530327362,1
443,1014,67,0.14343623660723,1
443,1015,67,0.180697051986574,1
443,1016,67,0.192968570181973,1
443,1017,67,0.179281001587616,1
443,1018,67,0.135747085296262,1
443,1020,67,0.114247073378073,1
443,1021,67,0.132514370838821,1
444,1011,67,0.123444429066474,1
444,1012,67,0.115869595796281,1
444,1015,67,0.150790901362715,1
444,1016,67,0.175973963327215,1
444,1017,67,0.156602619985304,1
445,1007,67,0.170361697711585,1
445,1008,67,0.16295968995374,1
446,1007,67,0.120423003366582,1
446,1008,67,0.114404753840413,1
455,998,67,0.12270875178502,1
455,999,67,0.114021028207102,1
456,999,67,0.113958975898785,1
461,996,67,0.118849614034407,1
462,995,67,0.13739510462992,1
462,996,67,0.134266250356015,1
463,995,67,0.149870209512335,1
463,996,67,0.138802781676967,1
464,995,67,0.161849472994656,1
464,996,67,0.136589602308417,1
465,995,67,0.165496108970496,1
465,996,67,0.135267672624599,1
466,995,67,0.14038625200666,1
466,996,67,0.122575261005976,1
468,995,67,0.156541698256148,1
468,996,67,0.12974653640008,1
469,995,67,0.167163501249149,1
469,996,67,0.141274533921096,1
469,997,67,0.116391935145457,1
469,998,67,0.120314797519396,1
470,995,67,0.131846681406278,1
470,996,67,0.119399087283443,1
470,997,67,0.128160274953083,1
470,998,67,0.153592994705404,1
470,999,67,0.118455925172241,1
471,997,67,0.118882565706199,1
471,998,67,0.151175592699059,1
471,999,67,0.120883478837301,1
472,996,67,0.122818959699469,1
472,998,67,0.138525365815375,1
472,999,67,0.132302528568558,1
473,996,67,0.180876719858218,1
473,997,67,0.120544587733838,1
473,998,67,0.134306009056504,1
473,999,67,0.145995184769139,1
474,997,67,0.115743112252661,1
474,999,67,0.121742789660741,1
482,1004,67,0.118647311025813,1
441,1016,68,0.138499503817071,1
441,1017,68,0.17682378199645,1
441,1018,68,0.190078574309529,1
442,1015,68,0.138859734602195,1
442,1016,68,0.15386123638818,1
442,1017,68,0.164751339948289,1
442,1018,68,0.148081798156007,1
442,1019,68,0.134193822628523,1
442,1020,68,0.15117162389513,1
442,1021,68,0.153742007394176,1
443,1014,68,0.124940079304475,1
443,1015,68,0.17313232326763,1
443,1016,68,0.191261077673709,1
443,1017,68,0.163597536807182,1
443,1018,68,0.121721214441754,1
443,1021,68,0.138687886569747,1
444,1011,68,0.115878534437771,1
444,1015,68,0.158088530754909,1
444,1016,68,0.178546737530112,1
444,1017,68,0.143223393303335,1
445,1007,68,0.154465330742925,1
445,1008,68,0.14746609181113,1
446,1007,68,0.117086958684586,1
446,1008,68,0.120637153902632,1
455,999,68,0.118119424772629,1
456,999,68,0.115303740926278,1
456,1001,68,0.117380073108901,1
462,996,68,0.122826967968525,1
463,995,68,0.145844028690707,1
463,996,68,0.129473254218544,1
464,995,68,0.172346382320983,1
464,996,68,0.136563575433985,1
465,995,68,0.175243821172902,1
465,996,68,0.132780775330461,1
465,997,68,0.115745149650524,1
466,995,68,0.142286414046918,1
466,996,68,0.115603073535978,1
466,997,68,0.116178691428109,1
468,995,68,0.162260438519623,1
468,996,68,0.133410661022313,1
469,995,68,0.168858086311993,1
469,996,68,0.149509024801044,1
469,997,68,0.122825660736371,1
469,998,68,0.122900538052044,1
469,999,68,0.115421756903057,1
470,996,68,0.136186209308454,1
470,997,68,0.133434874259341,1
470,998,68,0.143573943504394,1
470,999,68,0.120651615894398,1
471,996,68,0.124839728627084,1
471,997,68,0.131816297091331,1
471,998,68,0.147541616854448,1
471,999,68,0.125524129432848,1
472,996,68,0.146342201910321,1
472,997,68,0.133992344000568,1
472,998,68,0.149636250287238,1
472,999,68,0.146122904883716,1
473,996,68,0.196442934158179,1
473,997,68,0.14129888848052,1
473,998,68,0.148601099073688,1
473,999,68,0.158834548124939,1
474,997,68,0.128224541312258,1
474,998,68,0.122174576685253,1
474,999,68,0.132585467780425,1
480,1003,68,0.119929811761396,1
481,1003,68,0.135292298051946,1
481,1004,68,0.11947080839896,1
482,1004,68,0.137413547202481,1
442,1015,69,0.129097242432633,1
442,1016,69,0.156748040729868,1
442,1017,69,0.159505911939754,1
442,1018,69,0.136579803955689,1
442,1019,69,0.119159875575995,1
442,1020,69,0.123794249101826,1
442,1021,69,0.130789660552086,1
443,1014,69,0.117999972018166,1
443,1015,69,0.166118987426923,1
443,1016,69,0.181860889017733,1
443,1017,69,0.145038337939344,1
443,1021,69,0.115685594037853,1
444,1015,69,0.149829767753602,1
444,1016,69,0.160416440354553,1
444,1017,69,0.124108785645865,1
456,1001,69,0.115305425018153,1
463,996,69,0.117970376753257,1
464,996,69,0.130955902796195,1
465,996,69,0.133904677008137,1
465,997,69,0.118666142234961,1
466,996,69,0.125739139680135,1
466,997,69,0.123322644492492,1
466,998,69,0.117735133849738,1
467,996,69,0.126979302581517,1
467,997,69,0.117134819869062,1
468,996,69,0.138142605885098,1
468,997,69,0.118005577806505,1
468,998,69,0.115734844892547,1
469,996,69,0.150657999426985,1
469,997,69,0.128966307233568,1
469,998,69,0.126592632731642,1
469,999,69,0.121147480848225,1
470,996,69,0.150324961426052,1
470,997,69,0.134979928451298,1
470,998,69,0.129401250458238,1
470,999,69,0.117514105623793,1
471,996,69,0.14931818068332,1
471,997,69,0.137142267088209,1
471,998,69,0.132800560465776,1
471,999,69,0.122616798013271,1
472,997,69,0.14417252628573,1
472,998,69,0.143859308750711,1
472,999,69,0.143421927714725,1
473,997,69,0.150458770180485,1
473,998,69,0.147558245789605,1
473,999,69,0.15103358724571,1
474,998,69,0.128632480182596,1
474,999,69,0.129184026160094,1
479,1003,69,0.122867892578775,1
480,1003,69,0.146191422691609,1
480,1004,69,0.128117124515111,1
481,1004,69,0.142465410637186,1
481,1005,69,0.11831285980093,1
481,1006,69,0.122168558706595,1
482,1005,69,0.126348792715754,1
482,1006,69,0.132110836516463,1
443,1015,70,0.139031335320452,1
443,1016,70,0.14964782694677,1
443,1017,70,0.122180983300498,1
444,1015,70,0.125223995996242,1
444,1016,70,0.125513224054692,1
465,997,70,0.120502261676504,1
465,998,70,0.116677630144029,1
466,997,70,0.12956653877618,1
466,998,70,0.122710612529889,1
467,997,70,0.129425404810935,1
467,998,70,0.120603342519603,1
468,997,70,0.130834165329678,1
468,998,70,0.125579798679653,1
468,999,70,0.118783439822899,1
469,997,70,0.136175174384769,1
469,998,70,0.12911428355811,1
469,999,70,0.121313310902015,1
470,997,70,0.139261643717009,1
470,998,70,0.123313093453956,1
470,999,70,0.114264503140137,1
471,997,70,0.140512535343553,1
471,998,70,0.122303710023781,1
471,999,70,0.115808532744729,1
472,998,70,0.131554579792461,1
472,999,70,0.128164997476453,1
473,998,70,0.135390528893411,1
473,999,70,0.129913084842711,1
474,999,70,0.116945930711137,1
479,1003,70,0.129012213458245,1
479,1004,70,0.115514016873329,1
480,1004,70,0.140366996830327,1
481,1005,70,0.141618877713637,1
481,1006,70,0.141042435440868,1
