x,y,z,signal,mito.p
367,944,30,0.260388844801536,1
367,945,30,0.255465855614301,1
368,944,30,0.251726983221923,1
368,945,30,0.239641421744749,1
369,945,30,0.199763986889427,1
360,958,31,0.25926985407709,1
361,958,31,0.293799225534432,2
361,959,31,0.236791161019063,1
366,944,31,0.223363295879444,1
366,945,31,0.224387388615577,1
367,943,31,0.203450475780686,1
367,944,31,0.303717584528929,1
367,945,31,0.282575495130077,1
367,946,31,0.243984164731413,1
368,943,31,0.207661270757787,1
368,944,31,0.301285755861417,3
368,945,31,0.279711950099251,3
368,946,31,0.240324550648957,1
369,944,31,0.244143906145348,1
369,945,31,0.245578375563134,1
369,946,31,0.239061787941224,1
370,945,31,0.21307007923193,1
359,958,32,0.18345262670754,1
360,957,32,0.19720383748716,1
360,958,32,0.284800003843969,2
360,959,32,0.261889264670372,1
361,957,32,0.250167537699398,2
361,958,32,0.369523580536665,2
361,959,32,0.305633892652828,2
361,960,32,0.180508975432421,1
362,958,32,0.263801592213475,2
362,959,32,0.203427181139226,1
366,944,32,0.21251819172531,1
366,945,32,0.217093033192202,1
367,943,32,0.232956754687593,1
367,944,32,0.31643257240017,3
367,945,32,0.286435928335979,3
367,946,32,0.247794145842262,1
368,943,32,0.233558811644475,3
368,944,32,0.320783064564832,3
368,945,32,0.299924774089085,3
368,946,32,0.25498637228144,3
368,947,32,0.210331792950632,1
369,944,32,0.2498998966368,3
369,945,32,0.284912779115263,3
369,946,32,0.274620339740922,1
369,947,32,0.22968598917527,1
370,945,32,0.264755848132693,4
370,946,32,0.27243222154377,4
359,958,33,0.238107508468273,1
359,959,33,0.211027876407724,1
360,957,33,0.204659488870814,1
360,958,33,0.27561098617688,2
360,959,33,0.268504236233008,2
360,960,33,0.198010011090039,1
361,957,33,0.246622724509232,2
361,958,33,0.355309750896667,2
361,959,33,0.330220267911459,2
361,960,33,0.230842029920966,2
362,958,33,0.286348237789816,2
362,959,33,0.236663688218677,2
366,944,33,0.186258724184756,1
367,943,33,0.248700823221794,1
367,944,33,0.285012552726208,1
367,945,33,0.261691719515747,1
368,943,33,0.246255474711818,1
368,944,33,0.30083512585089,3
368,945,33,0.288003452788757,3
368,946,33,0.247552484546632,1
369,944,33,0.246212300720113,4
369,945,33,0.304173985203922,4
369,946,33,0.283413136519601,4
370,944,33,0.208011679636451,4
370,945,33,0.320253929963824,4
370,946,33,0.319553253528891,4
370,947,33,0.237020079745401,4
371,945,33,0.241138379214905,4
371,946,33,0.257799229679889,4
359,959,34,0.25608734440051,1
360,958,34,0.24372872450226,1
360,959,34,0.245263391498177,1
360,960,34,0.189806787790009,1
361,949,34,0.204050530670304,1
361,957,34,0.207376270594324,1
361,958,34,0.275087221826886,2
361,959,34,0.287143435353342,2
361,960,34,0.239852698725432,1
361,961,34,0.189358595590798,1
362,948,34,0.167655067646791,1
362,958,34,0.24033168742991,1
362,959,34,0.216083826415021,1
362,960,34,0.169534066658382,1
362,961,34,0.159329777127988,1
362,962,34,0.253673393015979,1
362,964,34,0.191443831084313,1
363,946,34,0.181045081938254,1
363,947,34,0.204839816246969,1
363,948,34,0.14635347237133,1
364,948,34,0.187006602299655,1
365,945,34,0.166304096210779,1
365,947,34,0.235277927919737,1
365,948,34,0.171756585081876,1
366,945,34,0.183179156096144,1
366,946,34,0.194524600413283,1
366,947,34,0.176871313428671,1
367,944,34,0.245515981725695,1
367,945,34,0.233813945675106,1
367,946,34,0.214594382585538,1
368,944,34,0.271725538907045,1
368,945,34,0.266448772657395,4
368,946,34,0.226574965076881,1
369,944,34,0.259295221447011,4
369,945,34,0.317943073266523,4
369,946,34,0.273608330069571,4
369,947,34,0.177584449788106,1
370,944,34,0.238641165385925,4
370,945,34,0.362283540020477,4
370,946,34,0.337551202281433,4
370,947,34,0.212909560544822,4
371,945,34,0.282124653135958,4
371,946,34,0.311027603184427,4
371,947,34,0.216032714815458,1
372,947,34,0.201099577738105,1
373,947,34,0.168316550670815,1
359,953,35,0.161842465759232,1
360,953,35,0.169357460771965,1
360,954,35,0.210828635384358,1
360,957,35,0.15696646626837,1
360,958,35,0.206904559993194,1
360,959,35,0.205801044071012,1
360,960,35,0.1652928991432,1
360,961,35,0.166259650317518,1
361,950,35,0.132433781743012,1
361,953,35,0.13183055887637,1
361,954,35,0.150944047731545,1
361,955,35,0.129814547802724,1
361,956,35,0.125855377350109,1
361,957,35,0.156871026544209,1
361,958,35,0.188542800288185,1
361,959,35,0.208092492492719,1
361,960,35,0.205446843041412,1
361,961,35,0.184175007906988,1
361,962,35,0.236617381580548,1
361,964,35,0.172428443525074,1
362,949,35,0.126129766557073,1
362,957,35,0.140545828544467,1
362,958,35,0.162334609223321,1
362,959,35,0.162334420793461,1
362,960,35,0.153347341052111,1
362,961,35,0.146369630231837,1
362,962,35,0.205053189509846,1
362,963,35,0.232050736812571,1
362,964,35,0.156329879539617,1
363,945,35,0.171775828481343,1
363,948,35,0.164831210655256,1
363,962,35,0.155148353655337,1
363,963,35,0.16776049415354,1
363,964,35,0.128638933905306,1
365,944,35,0.191797502154931,1
365,948,35,0.176963867820599,1
366,944,35,0.17645765100133,1
366,945,35,0.189257514747699,1
366,947,35,0.177706964527796,1
366,948,35,0.114125912978003,1
367,944,35,0.214211139803745,1
367,945,35,0.212047258397353,1
367,946,35,0.196027293217307,1
367,947,35,0.135309115416964,1
368,944,35,0.24672037828425,1
368,945,35,0.250616919362101,4
368,946,35,0.209602404515759,1
368,947,35,0.135675811701664,1
369,944,35,0.27963382236849,4
369,945,35,0.328234994458749,4
369,946,35,0.262779006916224,4
369,947,35,0.155185568552715,1
370,944,35,0.26045755103929,4
370,945,35,0.360594454754175,4
370,946,35,0.316216631780448,4
370,947,35,0.182009171540798,4
371,945,35,0.284449382981712,4
371,946,35,0.317575211072063,4
371,947,35,0.206369796050114,1
372,946,35,0.256355150339235,1
372,947,35,0.203396396410826,1
372,948,35,0.125235513771443,1
373,946,35,0.158290374465719,1
373,947,35,0.155257113015237,1
373,948,35,0.128871079492999,1
374,947,35,0.129041738061956,1
374,948,35,0.122846105376196,1
375,948,35,0.11423908866275,1
377,952,35,0.121489339721985,1
378,953,35,0.118066028461011,1
379,953,35,0.146305834947314,1
379,956,35,0.115573407609872,1
380,956,35,0.143515118057431,1
380,957,35,0.127214027302921,1
358,953,36,0.162630220343283,1
359,952,36,0.114819146433461,1
359,953,36,0.11869274617584,1
359,954,36,0.126879187441451,1
359,957,36,0.134252648075486,1
359,958,36,0.215779677067021,1
359,959,36,0.215648365008236,1
359,960,36,0.132871963605903,1
360,954,36,0.126588404836655,1
360,957,36,0.123970996310638,1
360,958,36,0.165007686996144,1
360,959,36,0.160607343356609,1
360,960,36,0.133919739620082,1
360,961,36,0.143246570176132,1
360,962,36,0.177219979331129,1
360,963,36,0.163797331343263,1
360,964,36,0.138429325471035,1
361,950,36,0.12082892839279,1
361,954,36,0.114919991739235,1
361,958,36,0.124704930615886,1
361,959,36,0.133539982790701,1
361,960,36,0.146175783013218,1
361,961,36,0.157543226516528,1
361,962,36,0.195215643371617,1
361,963,36,0.187118706289572,1
361,964,36,0.138582189195074,1
362,945,36,0.138706600010232,1
362,949,36,0.117326276383831,1
362,960,36,0.11768472886215,1
362,961,36,0.123132483433011,1
362,962,36,0.154541232645963,1
362,963,36,0.16073501636372,1
362,964,36,0.125274942719678,1
366,943,36,0.222186009667017,1
366,975,36,0.214351355173422,1
367,943,36,0.20479407489842,1
367,944,36,0.200529930717167,1
367,945,36,0.197678562966052,1
367,946,36,0.176153266116006,1
367,947,36,0.119375651319588,1
368,943,36,0.185990435394514,1
368,944,36,0.224325159654265,1
368,945,36,0.239194772315018,4
368,946,36,0.194711263743485,1
368,947,36,0.121109005826157,1
369,943,36,0.182257934286782,1
369,944,36,0.286843666999591,4
369,945,36,0.328038956743005,4
369,946,36,0.247880517379404,4
369,947,36,0.137005938084398,1
370,944,36,0.259258100764564,4
370,945,36,0.327753556166089,4
370,946,36,0.272310283870526,4
370,947,36,0.152810080413385,1
371,944,36,0.16662766561124,1
371,945,36,0.260760122287211,4
371,946,36,0.281527306925579,1
371,947,36,0.18061754636246,1
372,945,36,0.18937999415679,1
372,946,36,0.241497903388054,1
372,947,36,0.184253806919126,1
373,945,36,0.120492946175293,1
373,946,36,0.150583687400892,1
373,947,36,0.141753310641981,1
374,947,36,0.118754774930425,1
375,947,36,0.117164521125767,1
376,948,36,0.144600285621982,1
376,950,36,0.133510976369105,1
379,953,36,0.137017750281255,1
380,953,36,0.165196811691394,1
380,956,36,0.147235665645911,1
380,957,36,0.145021391028798,1
380,958,36,0.130160976100593,1
381,957,36,0.189019398288812,1
381,958,36,0.18493877301447,1
381,959,36,0.165183692262382,1
381,960,36,0.15572314716683,1
381,961,36,0.146606050821983,1
381,962,36,0.120916642492686,1
358,950,37,0.166972068288112,1
358,952,37,0.134075594668151,1
358,953,37,0.126894626913117,1
358,954,37,0.125745887824501,1
358,958,37,0.147064924638891,1
358,959,37,0.139670854488903,1
359,950,37,0.153492702912344,1
359,958,37,0.152476017825088,1
359,959,37,0.149603239731114,1
360,958,37,0.11963739217219,1
360,959,37,0.11446881999286,1
360,962,37,0.124448230262043,1
361,961,37,0.117436472521415,1
361,962,37,0.141055001357166,1
361,963,37,0.127751735462566,1
365,975,37,0.210499118666437,1
366,973,37,0.150343192015021,1
366,974,37,0.266424017684519,1
366,975,37,0.310194931632465,5
366,976,37,0.223382727708771,1
367,943,37,0.185470592740985,1
367,946,37,0.157369717945937,1
367,973,37,0.14243284760198,1
367,975,37,0.212096744789373,1
368,943,37,0.157841028133614,1
368,944,37,0.199320964734504,1
368,945,37,0.229604493260759,1
368,946,37,0.186473404679787,1
369,943,37,0.182091715596405,1
369,944,37,0.27206388827466,1
369,945,37,0.312241586112116,4
369,946,37,0.230114996859345,1
369,947,37,0.123578143605977,1
370,943,37,0.155037698219969,1
370,944,37,0.245258680751673,1
370,945,37,0.288277995094982,4
370,946,37,0.225683526962287,1
370,947,37,0.12982265028671,1
371,944,37,0.167970911422986,1
371,945,37,0.233154134966091,1
371,946,37,0.226512123718524,1
371,947,37,0.150281893426144,1
372,944,37,0.124276947519175,1
372,945,37,0.188366159071169,1
372,946,37,0.206554787065308,1
372,947,37,0.158755372253081,1
373,945,37,0.131541660570176,1
373,946,37,0.146047992237443,1
373,947,37,0.135048128283802,1
373,973,37,0.180247646770138,1
374,947,37,0.115528490641961,1
375,947,37,0.116756782462155,1
375,948,37,0.120068484361594,1
375,949,37,0.122866550016021,1
376,948,37,0.14803916590015,1
376,949,37,0.148842289294668,1
376,950,37,0.135304228017466,1
377,951,37,0.144589827764744,1
378,952,37,0.142015805214024,1
379,953,37,0.1436690534763,1
379,954,37,0.115778866818623,1
380,953,37,0.187386264914106,1
380,954,37,0.172324783548264,1
380,955,37,0.157378256173975,1
380,956,37,0.155367438698349,1
380,957,37,0.167708145983019,1
380,958,37,0.164745380853962,1
380,959,37,0.1233782430781,1
381,959,37,0.201235223683674,1
381,960,37,0.144772204315628,1
381,961,37,0.144703521631607,1
381,962,37,0.147234864819005,1
381,963,37,0.121454786396382,1
382,960,37,0.207366519349062,1
382,961,37,0.204858235265798,1
382,962,37,0.160854539779381,1
358,950,38,0.150737540381697,1
359,950,38,0.132582229142204,1
360,950,38,0.12420575636264,1
363,943,38,0.13073412085081,1
365,974,38,0.174218821618068,1
365,975,38,0.219577033377241,5
366,947,38,0.136602262439645,1
366,973,38,0.151969223939373,1
366,974,38,0.31476614582455,5
366,975,38,0.396137084230691,5
366,976,38,0.226852875566856,5
367,946,38,0.149303341831834,1
367,973,38,0.141780609417969,1
367,974,38,0.246073781219177,1
367,975,38,0.289294809727767,5
367,976,38,0.158133082639966,1
368,943,38,0.144407969395976,1
368,944,38,0.183637794375727,1
368,945,38,0.221991432282689,1
368,946,38,0.179692190873042,1
368,973,38,0.114320160610076,1
368,974,38,0.124260236145954,1
368,975,38,0.120231947265266,1
369,943,38,0.175254620559262,1
369,944,38,0.240693896728566,1
369,945,38,0.279620750046943,1
369,946,38,0.204385205655647,1
370,943,38,0.162418448734218,1
370,944,38,0.233288461902638,1
370,945,38,0.253900615873576,1
370,946,38,0.185582649623437,1
371,944,38,0.194903662407555,1
371,945,38,0.215882771754251,1
371,946,38,0.176675546580851,1
371,947,38,0.122603384162602,1
372,944,38,0.166756174775856,1
372,945,38,0.189093839860434,1
372,946,38,0.16915884392251,1
372,947,38,0.134084062234991,1
372,973,38,0.125097594890687,1
373,945,38,0.144234142849996,1
373,946,38,0.140281590996218,1
373,947,38,0.128285910562332,1
373,973,38,0.187052049226547,1
373,974,38,0.245894301777393,1
374,973,38,0.137872114820866,1
375,947,38,0.119809228427772,1
375,948,38,0.126655521197464,1
375,949,38,0.138421234763915,1
375,950,38,0.121593011475661,1
376,948,38,0.161943063750815,1
376,949,38,0.165923927191079,1
376,950,38,0.153373391480276,1
377,949,38,0.181070837944762,1
377,951,38,0.141934945250291,1
378,952,38,0.136850200804991,1
379,953,38,0.154328354011469,1
379,954,38,0.137604556196332,1
379,955,38,0.115478968919343,1
379,969,38,0.11638981530953,1
380,954,38,0.207820941510523,1
380,955,38,0.182052357309369,1
380,956,38,0.165067219055083,1
380,959,38,0.140164210970217,1
381,955,38,0.204892835698866,1
381,960,38,0.149435454717525,1
381,961,38,0.152084931650366,1
381,962,38,0.180428056584356,1
381,963,38,0.167621032503303,1
381,964,38,0.125181139979927,1
382,961,38,0.215811545267118,1
382,962,38,0.189209382695299,1
382,963,38,0.144949552144619,1
359,950,39,0.113783206169872,1
361,949,39,0.122036092514916,1
362,944,39,0.121447131433313,1
363,948,39,0.135255000716505,1
364,948,39,0.1139123395084,1
365,974,39,0.155716575675457,1
365,975,39,0.19152814166986,5
366,947,39,0.116643936529663,1
366,973,39,0.140930814302467,1
366,974,39,0.298571777032077,5
366,975,39,0.376433350615492,5
366,976,39,0.199555913216367,5
367,946,39,0.146013909986491,1
367,973,39,0.135678638149566,1
367,974,39,0.253541916081066,1
367,975,39,0.301883408270318,5
367,976,39,0.155455364781837,1
368,943,39,0.138446507918906,1
368,945,39,0.197479463265081,1
368,946,39,0.15847235060315,1
368,973,39,0.115108032962789,1
368,974,39,0.132759600524928,1
368,975,39,0.130179183135829,1
369,943,39,0.15653460858266,1
369,944,39,0.196698704139587,1
369,945,39,0.225092328276096,1
369,946,39,0.166479182881449,1
370,944,39,0.214256292308981,1
370,945,39,0.209205429907908,1
370,946,39,0.146958661974638,1
371,945,39,0.19672202233478,1
371,946,39,0.136654045320585,1
372,945,39,0.187361851470351,1
372,946,39,0.140182889080103,1
372,947,39,0.115825032134357,1
372,973,39,0.114351145545202,1
372,974,39,0.162770259059967,1
373,946,39,0.136642515768517,1
373,947,39,0.122246721767954,1
373,973,39,0.171503629771503,1
373,974,39,0.220070601842147,1
374,947,39,0.114242692383825,1
374,973,39,0.129487857532705,1
375,948,39,0.138127343066427,1
375,949,39,0.160639906391814,1
375,950,39,0.1390828708872,1
376,949,39,0.209713036397394,1
376,950,39,0.188660851595563,1
376,951,39,0.130505060802076,1
377,947,39,0.256181582884313,1
377,948,39,0.208159573522929,1
377,949,39,0.201084621117956,1
377,950,39,0.191103291219574,1
377,951,39,0.155517911718538,1
377,952,39,0.12256706430706,1
378,951,39,0.177806844130537,1
378,952,39,0.150992403544403,1
378,953,39,0.1263724759938,1
378,971,39,0.121644488158078,1
379,954,39,0.166057029333536,1
379,955,39,0.140461506182054,1
379,969,39,0.142566774125075,1
379,970,39,0.198758972676634,1
380,955,39,0.203433281555948,1
380,956,39,0.174154731911888,1
380,959,39,0.147008313242785,1
380,963,39,0.120126037907,1
380,969,39,0.23104499243407,1
381,955,39,0.188629136494728,1
381,960,39,0.159740730876089,1
381,961,39,0.160265366714186,1
381,962,39,0.204197270423889,1
381,963,39,0.214843863720365,1
381,964,39,0.176561040110216,1
381,965,39,0.130298859650751,1
382,961,39,0.2232240462128,1
382,962,39,0.225900315516379,1
382,963,39,0.189535460568272,1
382,964,39,0.139160115352992,1
358,950,40,0.121146962666109,1
360,949,40,0.120652086969048,1
362,948,40,0.145947582675721,1
363,948,40,0.119675678764398,1
365,974,40,0.131505234722837,1
365,975,40,0.150046061679311,1
366,973,40,0.125122809161347,1
366,974,40,0.240384447790749,1
366,975,40,0.28623282450048,5
366,976,40,0.157689024120812,1
367,946,40,0.145250910375316,1
367,973,40,0.123862802240318,1
367,974,40,0.225822258446816,1
367,975,40,0.255270901370253,1
367,976,40,0.137464234834859,1
368,945,40,0.164345697566871,1
368,946,40,0.1309297934837,1
368,974,40,0.130243190403946,1
368,975,40,0.12560432989207,1
369,944,40,0.159550758246468,1
369,945,40,0.171988813107633,1
369,946,40,0.131105598543211,1
370,945,40,0.169530404052976,1
370,946,40,0.120331014264235,1
371,946,40,0.117273021394609,1
372,946,40,0.129113094094618,1
372,974,40,0.123004080260191,1
373,947,40,0.116059898178156,1
373,973,40,0.128154892925203,1
373,974,40,0.157590180882302,1
373,975,40,0.119303894873474,1
375,949,40,0.176567988461309,1
375,950,40,0.149676680269104,1
376,947,40,0.198613151518617,1
376,948,40,0.212942323786754,1
376,949,40,0.252745046202531,1
376,950,40,0.215816279567354,1
376,951,40,0.147614492102857,1
376,952,40,0.116116132714542,1
377,946,40,0.197294978655137,1
377,947,40,0.259030383278583,1
377,948,40,0.229143358285529,1
377,949,40,0.232473549864995,1
377,950,40,0.204770474058437,1
377,951,40,0.170048715713891,1
377,952,40,0.15927572131186,1
377,953,40,0.155151027003977,1
377,954,40,0.126358708837144,1
377,972,40,0.120748987024626,1
378,947,40,0.21693190210805,1
378,948,40,0.191904860067746,1
378,949,40,0.18425080381823,1
378,952,40,0.176470888199005,1
378,953,40,0.169227573713997,1
378,954,40,0.148619353216389,1
378,971,40,0.139119284957673,1
378,972,40,0.200298750832507,1
378,973,40,0.238549988887349,1
378,974,40,0.24801866002062,1
379,954,40,0.188990910049332,1
379,955,40,0.164269100828724,1
379,956,40,0.118230327522188,1
379,969,40,0.156526458991209,1
379,970,40,0.188133954599144,1
379,971,40,0.180994358975277,1
379,972,40,0.234308903810231,1
379,973,40,0.237127885179134,1
380,955,40,0.220870109738724,1
380,956,40,0.196408828353493,1
380,959,40,0.143665084672371,1
380,963,40,0.114859387985467,1
380,964,40,0.121883593873731,1
380,969,40,0.245758914922882,1
381,960,40,0.159353342637372,1
381,961,40,0.152029474387153,1
381,962,40,0.192233976372215,1
381,963,40,0.218418024861247,1
381,964,40,0.205656353492156,1
381,965,40,0.15998497130543,1
382,961,40,0.204730526928087,1
382,962,40,0.229535433717017,1
382,963,40,0.201184771588621,1
382,964,40,0.159909846675565,1
359,949,41,0.135633568082394,1
362,948,41,0.157443123153328,1
363,948,41,0.125741165301131,1
365,975,41,0.115868665423846,1
366,947,41,0.124598408860575,1
366,973,41,0.114036726769825,1
366,974,41,0.174304663196228,1
366,975,41,0.188646295388867,1
366,976,41,0.120897987936532,1
367,974,41,0.17895181462195,1
367,975,41,0.190368426541891,1
367,976,41,0.120896975126034,1
368,974,41,0.122798020431261,1
368,975,41,0.120595581564739,1
369,945,41,0.136515101852463,1
370,945,41,0.146614435950759,1
370,946,41,0.115950020015962,1
371,946,41,0.119810582767392,1
375,948,41,0.170178202358407,1
375,949,41,0.186218906599935,1
375,950,41,0.153671935039936,1
376,947,41,0.20483720178266,1
376,948,41,0.247890315732131,1
376,949,41,0.281047116980743,1
376,950,41,0.228471276081872,1
376,951,41,0.165401576065036,1
376,952,41,0.15008786955453,1
376,953,41,0.14285365858714,1
377,946,41,0.177679394883884,1
377,947,41,0.246976572232844,1
377,948,41,0.262484373276161,6
377,949,41,0.265312517047014,1
377,950,41,0.218052376717644,1
377,951,41,0.187062071339733,1
377,952,41,0.208995259952653,1
377,953,41,0.220845072121058,1
377,954,41,0.15642449488314,1
377,972,41,0.132140255128378,1
377,973,41,0.18461923130227,1
377,974,41,0.246575876135255,1
378,947,41,0.218619550596668,1
378,948,41,0.218215038794411,1
378,949,41,0.200198011518529,1
378,952,41,0.20653844077494,1
378,953,41,0.217222225415062,1
378,954,41,0.175704897263801,1
378,955,41,0.114240513663567,1
378,971,41,0.156149375510468,1
378,972,41,0.264534725691818,1
378,973,41,0.306957965726304,1
378,974,41,0.267975714029046,1
378,975,41,0.233858156031042,1
379,954,41,0.19652288730321,1
379,955,41,0.175387487164393,1
379,956,41,0.14277474180634,1
379,968,41,0.122277388727692,1
379,969,41,0.165263892721605,1
379,970,41,0.171186973391537,1
379,971,41,0.197185771774319,1
379,972,41,0.314631818888002,1
379,973,41,0.321547265416365,1
379,974,41,0.197055025005114,1
380,955,41,0.227770693861869,1
380,956,41,0.225834953908643,1
380,959,41,0.140511546086788,1
380,964,41,0.123193204955442,1
380,965,41,0.121580810642217,1
380,966,41,0.113924469680646,1
380,967,41,0.130743577674416,1
380,968,41,0.188281353857239,1
380,969,41,0.24808256129694,1
380,970,41,0.225549741761587,1
380,972,41,0.197180342638973,1
380,973,41,0.184712468752441,1
381,960,41,0.157482399002302,1
381,961,41,0.144557300060137,1
381,962,41,0.168035118897829,1
381,963,41,0.195812506730479,1
381,964,41,0.215338798301757,1
381,965,41,0.189505735757835,1
382,962,41,0.209184655515827,1
382,963,41,0.19096844610091,1
382,964,41,0.171636084186316,1
357,950,42,0.145830944592294,1
358,949,42,0.151080659380147,1
359,949,42,0.119557509688357,1
360,948,42,0.16011585939703,1
361,948,42,0.182026342211803,1
361,949,42,0.117912811430984,1
362,949,42,0.128321158723045,1
363,948,42,0.146645797745606,1
366,974,42,0.116498138925379,1
366,975,42,0.115020318862894,1
367,974,42,0.122201098188068,1
367,975,42,0.126489856019802,1
370,946,42,0.117987111680211,1
375,948,42,0.18412951387263,1
375,949,42,0.185343802998842,1
375,950,42,0.153457713842689,1
375,951,42,0.122944713077381,1
376,947,42,0.219029409096207,1
376,948,42,0.284581401652473,6
376,949,42,0.281680523955606,1
376,950,42,0.22086398576827,1
376,951,42,0.183061882061939,1
376,952,42,0.201311208024776,1
376,953,42,0.190242178535597,1
377,946,42,0.161380635948894,1
377,947,42,0.250906229858614,6
377,948,42,0.31703853927665,6
377,949,42,0.286962519133875,6
377,950,42,0.216109099570012,1
377,951,42,0.20568791549373,1
377,952,42,0.282275349916606,7
377,953,42,0.303622898524208,1
377,954,42,0.175598033979368,1
377,972,42,0.125356273758061,1
377,973,42,0.169201040434316,1
377,974,42,0.210714564657775,1
378,947,42,0.221127905341129,1
378,948,42,0.262236493795146,6
378,949,42,0.223064775873516,1
378,951,42,0.174338533463589,1
378,952,42,0.246155324241153,1
378,953,42,0.285342234320257,8
378,954,42,0.195996484935174,1
378,955,42,0.120640734069975,1
378,971,42,0.155117168513483,1
378,972,42,0.275677030842859,1
378,973,42,0.310792277842844,1
378,974,42,0.248171288207334,1
379,948,42,0.177270007458996,1
379,952,42,0.218094231700328,1
379,953,42,0.25511304425492,1
379,954,42,0.207078928275022,1
379,955,42,0.177717705029824,1
379,956,42,0.167587126905344,1
379,957,42,0.13154366263744,1
379,968,42,0.142822402784089,1
379,969,42,0.167463446255894,1
379,970,42,0.160469754228107,1
379,971,42,0.203369969122941,1
379,972,42,0.341650187690273,1
379,973,42,0.341868248145921,1
379,974,42,0.199590725633028,1
380,955,42,0.218737931656301,1
380,956,42,0.245183096824024,1
380,959,42,0.138285259066091,1
380,965,42,0.125334875192069,1
380,966,42,0.130118579382061,1
380,967,42,0.168089127606491,1
380,968,42,0.234156134301122,1
380,969,42,0.253415597413574,1
380,970,42,0.204273937823234,1
380,972,42,0.200382766996397,1
380,973,42,0.181489470209663,1
381,960,42,0.148620059828365,1
381,961,42,0.132130762974173,1
381,962,42,0.139657275762107,1
381,963,42,0.158660768686424,1
381,964,42,0.194368639373418,1
381,965,42,0.195163518961556,1
381,967,42,0.162759047483288,1
382,964,42,0.163199843810489,1
358,950,43,0.119798429041413,1
361,949,43,0.142786330242738,1
363,949,43,0.124117571188095,1
372,948,43,0.118599626494331,1
375,947,43,0.162914513894771,1
375,948,43,0.193734867315701,6
375,949,43,0.18796986752156,1
375,950,43,0.161765386169569,1
375,951,43,0.143859179205182,1
375,952,43,0.133507702400286,1
376,946,43,0.161577651144537,1
376,947,43,0.245074019488735,6
376,948,43,0.321612744792764,6
376,949,43,0.282437658687384,6
376,950,43,0.216144406615056,1
376,951,43,0.206709299550623,1
376,952,43,0.248046759623513,7
376,953,43,0.212223510977782,1
377,946,43,0.163243606645507,1
377,947,43,0.27920552129639,6
377,948,43,0.384071143012705,6
377,949,43,0.316726004799874,6
377,950,43,0.219041633483383,6
377,951,43,0.224409670446538,7
377,952,43,0.333640717393932,7
377,953,43,0.336305351153648,7
377,954,43,0.168097524512134,1
377,973,43,0.137985314059345,1
377,974,43,0.153644436057222,1
378,946,43,0.142212914624597,1
378,947,43,0.228795940730895,1
378,948,43,0.30764220165594,6
378,949,43,0.252469161333552,6
378,950,43,0.175226827154891,1
378,951,43,0.178752597152316,1
378,952,43,0.283199386397003,7
378,953,43,0.343030954597919,8
378,954,43,0.202504133915594,8
378,955,43,0.12030921528479,1
378,971,43,0.138332225208731,1
378,972,43,0.234068349540029,1
378,973,43,0.258634185943905,1
378,974,43,0.20443247799681,1
379,947,43,0.157172161014446,1
379,948,43,0.17571686255992,1
379,949,43,0.147065219060547,1
379,951,43,0.142951665668145,1
379,952,43,0.235142517511494,1
379,953,43,0.3124201234046,8
379,954,43,0.216917393008819,1
379,955,43,0.169870826149052,1
379,956,43,0.187640515679767,1
379,957,43,0.168630451264077,1
379,958,43,0.128650993416355,1
379,968,43,0.153010769991301,1
379,969,43,0.163038583180807,1
379,970,43,0.158969110598812,1
379,971,43,0.201121930230264,1
379,972,43,0.303359991761847,1
379,973,43,0.297016641842603,1
379,974,43,0.189839633470005,1
380,952,43,0.180134577077187,1
380,953,43,0.214330627888806,1
380,955,43,0.194096146241922,1
380,956,43,0.243608671127618,1
380,959,43,0.143005061979763,1
380,965,43,0.119104053229928,1
380,966,43,0.142470415805346,1
380,967,43,0.198370171213966,1
380,968,43,0.265249581473727,1
380,969,43,0.263504980059881,1
380,970,43,0.216189229368037,1
380,971,43,0.197565893686554,1
380,972,43,0.201588199919182,1
380,973,43,0.171399180744654,1
381,960,43,0.143444303760617,1
381,961,43,0.119636344031093,1
381,963,43,0.122838462189994,1
381,964,43,0.157034571885945,1
381,967,43,0.187066687871307,1
361,949,44,0.161116410177511,1
362,950,44,0.118761852827046,1
363,949,44,0.154628934968992,1
363,950,44,0.131814942751711,1
372,978,44,0.12512742569292,1
373,979,44,0.158235435384622,1
375,947,44,0.157963978617356,1
375,948,44,0.188008907833208,6
375,949,44,0.183408110153081,1
375,951,44,0.17289786941415,1
375,952,44,0.168809000333427,1
375,953,44,0.11692785322143,1
376,946,44,0.169401141168919,1
376,947,44,0.261203120888402,6
376,948,44,0.334887157365031,6
376,949,44,0.27885037811749,6
376,950,44,0.211194377742891,1
376,951,44,0.223694037391456,1
376,952,44,0.27069515732433,1
376,953,44,0.203642509361902,1
377,946,44,0.177777083989501,6
377,947,44,0.313007812584646,6
377,948,44,0.425923417017233,6
377,949,44,0.336165512643691,6
377,950,44,0.218522509218695,6
377,951,44,0.223244373083963,1
377,952,44,0.321676434085492,7
377,953,44,0.296433545640397,1
377,954,44,0.145063940846591,1
378,946,44,0.140992972602581,1
378,947,44,0.236633327457462,6
378,948,44,0.321274890053532,6
378,949,44,0.257167777664825,6
378,950,44,0.170561268487207,1
378,951,44,0.169185907161173,1
378,952,44,0.270224530194896,1
378,953,44,0.326305896658093,8
378,954,44,0.184325539811508,1
378,971,44,0.11555364602829,1
378,972,44,0.164888505109605,1
378,973,44,0.180239709162279,1
378,974,44,0.158441695420278,1
379,947,44,0.142097466004662,1
379,948,44,0.164585698324359,6
379,949,44,0.138992189017008,1
379,952,44,0.220298083790802,1
379,953,44,0.309049419405204,1
379,954,44,0.20088865406341,1
379,955,44,0.154219417998575,1
379,956,44,0.190859934055202,1
379,957,44,0.199875419597968,1
379,958,44,0.16013808234366,1
379,967,44,0.118196739899618,1
379,968,44,0.156025094240839,1
379,969,44,0.168032351334258,1
379,970,44,0.171312714992582,1
379,971,44,0.191359991573417,1
379,972,44,0.228375930572641,1
379,973,44,0.217898123323386,1
379,974,44,0.168194071261724,1
380,953,44,0.187984435505123,1
380,955,44,0.162094608465833,1
380,956,44,0.219031670254528,1
380,957,44,0.239344691822493,1
380,958,44,0.210566741432495,1
380,959,44,0.145272827123423,1
380,966,44,0.139823529783082,1
380,967,44,0.202170989922865,1
380,968,44,0.266477837963322,1
380,969,44,0.271695978972735,1
380,970,44,0.243006896815526,1
380,971,44,0.2266340849455,1
380,972,44,0.204382850282395,1
381,960,44,0.137092097637947,1
381,967,44,0.194728104662235,1
381,968,44,0.239351475297458,1
381,969,44,0.241335877262065,1
351,954,45,0.165009630179077,1
352,955,45,0.152264387538417,1
353,955,45,0.116146199054101,1
353,985,45,0.181084216464832,1
356,952,45,0.127462566288447,1
357,951,45,0.142655041737685,1
358,950,45,0.170139656675142,1
361,950,45,0.114621130204185,1
362,950,45,0.161209977379937,1
363,951,45,0.138232687135111,1
364,950,45,0.144253256703934,1
371,979,45,0.156737052913649,1
372,978,45,0.126595482733277,1
372,979,45,0.23552232144834,1
373,979,45,0.163121374550607,1
373,980,45,0.129009445894674,1
374,950,45,0.123883164442079,1
374,951,45,0.127913102084044,1
374,952,45,0.124477566435893,1
375,947,45,0.152157170947997,1
375,948,45,0.171065400801147,1
375,949,45,0.172099421435536,1
375,951,45,0.193401264025188,1
375,952,45,0.201832240141797,1
375,953,45,0.133287345455717,1
376,946,45,0.16837048871828,1
376,947,45,0.254744310572357,6
376,948,45,0.307446069725266,6
376,949,45,0.261004327385953,6
376,950,45,0.201827482287829,1
376,951,45,0.220380828053136,1
376,952,45,0.252484117953701,1
376,953,45,0.176675758564443,1
377,946,45,0.184492759535517,6
377,947,45,0.319055209854806,6
377,948,45,0.403876982058368,6
377,949,45,0.322191483554454,6
377,950,45,0.213381129823557,6
377,951,45,0.208656887031305,1
377,952,45,0.259437179792895,1
377,953,45,0.22265531778743,1
377,954,45,0.122304004445437,1
378,946,45,0.143635265647004,1
378,947,45,0.238587863289237,6
378,948,45,0.302387151947672,6
378,949,45,0.2429585645564,6
378,950,45,0.166887651710769,1
378,951,45,0.16518731953719,1
378,952,45,0.231383059156895,1
378,953,45,0.261096022066644,1
378,954,45,0.15645915420054,1
378,974,45,0.118465900177963,1
379,947,45,0.134485029200504,1
379,948,45,0.152221260654178,1
379,949,45,0.130968421605029,1
379,952,45,0.190256369659438,1
379,953,45,0.252186445882143,1
379,955,45,0.134514648019145,1
379,956,45,0.174417991980237,1
379,957,45,0.205404375661683,1
379,958,45,0.172959697962009,1
379,967,45,0.113775857405326,1
379,968,45,0.156800212247394,1
379,969,45,0.188409227071077,1
379,970,45,0.192354724581966,1
379,971,45,0.175690411718302,1
379,972,45,0.158850164249598,1
379,973,45,0.145682838722223,1
379,974,45,0.134653367726808,1
379,975,45,0.129570166050988,1
380,956,45,0.178473249884657,1
380,957,45,0.229140861589883,1
380,958,45,0.211938110400867,1
380,959,45,0.135361357595688,1
380,966,45,0.124414760408135,1
380,967,45,0.182560058013785,1
380,968,45,0.24345385244378,1
380,969,45,0.271658999612682,1
380,970,45,0.261897838229008,1
380,971,45,0.236059087458683,1
380,972,45,0.194429572879441,1
381,967,45,0.181580552493309,1
381,968,45,0.218962092528671,1
381,969,45,0.214891654243643,1
341,970,46,0.114563023146065,1
342,966,46,0.177940676438702,1
346,983,46,0.14312122898854,1
346,984,46,0.215159365967438,1
347,984,46,0.173905733628578,1
349,986,46,0.164918194589444,1
350,954,46,0.117778048750385,1
350,985,46,0.138977621033445,1
350,986,46,0.172132184677468,1
351,953,46,0.122833398137503,1
351,954,46,0.144443229333555,1
351,955,46,0.120616732816539,1
351,985,46,0.143304983432776,1
351,986,46,0.164028840980178,1
352,954,46,0.131544828547199,1
352,955,46,0.118806498927033,1
352,985,46,0.158469100188062,1
352,986,46,0.160722874414607,1
353,952,46,0.125186463123476,1
353,985,46,0.184791244210846,1
353,986,46,0.159221795041261,1
354,985,46,0.118289494498272,1
356,952,46,0.124030222171053,1
357,951,46,0.14689053280333,1
358,950,46,0.174611474116003,1
358,951,46,0.124958757414362,1
359,949,46,0.121763081201304,1
359,950,46,0.117400458864395,1
360,949,46,0.129937015434949,1
361,950,46,0.129205047866366,1
362,951,46,0.127302730659583,1
364,951,46,0.117352856770977,1
365,986,46,0.120505936058777,1
366,986,46,0.141728402569844,1
368,985,46,0.118588697562443,1
371,979,46,0.132843133837302,1
371,980,46,0.139883768453996,1
372,979,46,0.194829338604596,1
372,980,46,0.174740171710479,1
373,950,46,0.114323175487838,1
373,979,46,0.138648198530454,1
374,951,46,0.146858994355489,1
374,952,46,0.14752096023103,1
375,948,46,0.151749314515723,1
375,949,46,0.152732800616995,1
375,951,46,0.18874043965774,1
375,952,46,0.208222367773821,1
375,953,46,0.1404582439901,1
376,947,46,0.232161627785264,1
376,948,46,0.259979127624392,6
376,949,46,0.227766006669098,1
376,950,46,0.188535333754977,1
376,952,46,0.21002192004563,1
376,953,46,0.14944186133277,1
377,946,46,0.169950025574643,1
377,947,46,0.288435969978978,6
377,948,46,0.337707716834013,6
377,949,46,0.276184613778613,6
377,950,46,0.200063661028249,1
377,952,46,0.195091444540052,1
377,953,46,0.163955942178036,1
377,975,46,0.120063231879242,1
378,947,46,0.214167753828447,1
378,948,46,0.254341942159759,6
378,949,46,0.209391292411204,1
378,952,46,0.183132166399771,1
378,953,46,0.184564409989835,1
379,948,46,0.13196953767509,1
379,956,46,0.142911318124343,1
379,957,46,0.179098059747152,1
379,958,46,0.156376857459123,1
379,968,46,0.164090610643706,1
379,969,46,0.222072857536003,1
379,970,46,0.211946259992318,1
379,971,46,0.159520432815852,1
379,972,46,0.119413384399082,1
379,975,46,0.119013277144805,1
380,957,46,0.189636023229256,1
380,958,46,0.179280966257017,1
380,959,46,0.115397143252576,1
380,967,46,0.15791634119334,1
380,968,46,0.218355159949158,1
380,969,46,0.268673045833962,1
380,970,46,0.261004421600883,1
380,971,46,0.218245729307881,1
380,972,46,0.169872498464061,1
381,958,46,0.146145881549787,1
381,967,46,0.157008568565245,1
381,968,46,0.185709616018573,1
381,969,46,0.18332412931979,1
381,970,46,0.166648239796594,1
381,971,46,0.155515179485566,1
334,959,47,0.164504532162104,1
334,960,47,0.134512233761562,1
334,961,47,0.123679742631191,1
334,962,47,0.131946478570955,1
334,964,47,0.128042624059158,1
334,965,47,0.11870177903226,1
335,957,47,0.222464249909247,1
335,958,47,0.185188171711232,1
335,959,47,0.146762435829033,1
336,956,47,0.246361419400682,1
336,957,47,0.225194480814025,1
336,958,47,0.15832163026877,1
337,955,47,0.204987215505064,1
337,956,47,0.204267272116931,1
337,957,47,0.16384263694776,1
338,956,47,0.173431102364616,1
339,979,47,0.117606930883645,1
339,980,47,0.138258184050562,1
340,979,47,0.175255150518243,1
340,980,47,0.154044378435371,1
340,981,47,0.123763911894343,1
341,965,47,0.120054811419867,1
341,966,47,0.145167577269668,1
341,967,47,0.141980922136165,1
341,968,47,0.124004819470533,1
341,969,47,0.115744996551262,1
341,970,47,0.124673733697166,1
341,979,47,0.186004744287019,1
341,980,47,0.13280882782589,1
342,965,47,0.134970424520227,1
342,966,47,0.15621342988605,1
342,967,47,0.144272617872063,1
342,968,47,0.124555705943521,1
342,969,47,0.115963268990503,1
342,970,47,0.115646730379199,1
345,983,47,0.117846978748598,1
345,984,47,0.158173065100915,1
345,985,47,0.166531978572887,1
346,983,47,0.157400749988529,1
346,984,47,0.217446268518769,1
346,985,47,0.181767310038441,1
347,980,47,0.138028853133904,1
347,983,47,0.115658695675318,1
347,984,47,0.159406220766874,1
347,985,47,0.12902044548776,1
348,980,47,0.113932678156429,1
349,953,47,0.132934769633661,1
349,985,47,0.121399988637679,1
349,986,47,0.157335141066602,1
349,987,47,0.113775763190396,1
350,953,47,0.123984739913562,1
350,985,47,0.137844227201565,1
350,986,47,0.172230603948793,1
351,952,47,0.146296978743887,1
351,953,47,0.119195724356887,1
351,985,47,0.161647582176382,1
351,986,47,0.19250360772521,1
351,987,47,0.122239467218339,1
352,952,47,0.131172608912224,1
352,953,47,0.113994070960236,1
352,985,47,0.170931285848192,1
352,986,47,0.193173487654876,1
352,987,47,0.124993228301901,1
353,951,47,0.151278793378085,1
353,952,47,0.126818960547404,1
353,985,47,0.144295888959791,1
353,986,47,0.138167231312445,1
354,952,47,0.143062556640838,1
356,952,47,0.131026057588499,1
357,951,47,0.154396400744713,1
358,949,47,0.159861408424643,1
358,950,47,0.171266408354452,1
358,951,47,0.139910278179945,1
359,948,47,0.129907514384971,1
359,949,47,0.12924970574322,1
359,950,47,0.132587399186492,1
359,951,47,0.115818331097456,1
360,948,47,0.149719548062286,1
360,949,47,0.13166454039272,1
360,950,47,0.115320935151016,1
364,951,47,0.125802887857194,1
366,986,47,0.139739183866937,1
366,987,47,0.124560569789285,1
367,986,47,0.159887823935661,1
368,985,47,0.11564940372784,1
368,986,47,0.16633554044369,1
369,985,47,0.134052088043098,1
370,985,47,0.16232472843253,1
371,980,47,0.114627136405977,1
371,984,47,0.139739466511727,1
372,979,47,0.137889438591133,1
372,980,47,0.131488052274966,1
373,951,47,0.135070068585643,1
374,951,47,0.156502775713162,1
374,952,47,0.157558088921747,1
375,952,47,0.184613625513931,1
375,953,47,0.136108010916496,1
376,948,47,0.208295313683428,1
376,949,47,0.184593522403227,1
376,953,47,0.126387255960955,1
376,978,47,0.117386020426362,1
377,947,47,0.239170040895875,1
377,948,47,0.260379988598109,6
377,949,47,0.219577787096681,1
377,976,47,0.185400049312094,1
378,948,47,0.203333343068876,1
378,969,47,0.123555166939906,1
378,975,47,0.141497399338178,1
379,957,47,0.138704668604165,1
379,958,47,0.123179449575651,1
379,967,47,0.118384333602254,1
379,968,47,0.176995794905026,1
379,969,47,0.247916766573749,1
379,970,47,0.216888940099938,1
379,971,47,0.142699346308551,1
379,975,47,0.121277744765913,1
379,976,47,0.20164795573858,1
380,958,47,0.132892137377804,1
380,967,47,0.145721455066686,1
380,968,47,0.200590440256005,1
380,969,47,0.257711821778516,1
380,970,47,0.240601919403084,1
380,971,47,0.185161803307679,1
380,972,47,0.140430980544711,1
381,967,47,0.130489715545341,1
381,968,47,0.149760131143414,1
381,969,47,0.152731516938573,1
381,970,47,0.143382239675433,1
381,971,47,0.130968504043092,1
333,959,48,0.256176094864636,1
333,960,48,0.178798562261324,1
333,961,48,0.1537942495729,1
333,962,48,0.182970682009631,1
333,963,48,0.189653782743575,1
333,964,48,0.179685006984624,1
333,965,48,0.178932088370966,1
333,966,48,0.147363574190348,1
334,957,48,0.173749713704381,1
334,958,48,0.20170212932337,1
334,959,48,0.201006564048393,1
334,960,48,0.171440329115362,1
334,961,48,0.146223714858891,1
334,962,48,0.137839975752846,1
334,963,48,0.13739440979481,1
334,964,48,0.160264907416401,1
334,965,48,0.19072196806698,1
334,966,48,0.164542689208782,1
335,956,48,0.226345881474415,1
335,957,48,0.232486622186542,1
335,958,48,0.199727855463745,1
335,959,48,0.175421157225027,1
335,960,48,0.158962280016382,1
335,961,48,0.139868281874866,1
335,962,48,0.117399552045693,1
335,964,48,0.118096483437157,1
335,965,48,0.147990068144717,1
335,966,48,0.143245145175315,1
336,955,48,0.230700566203465,1
336,956,48,0.267076079215536,1
336,957,48,0.226368846363619,1
336,958,48,0.153115760753998,1
336,959,48,0.119463836494134,1
336,976,48,0.128741121773833,1
337,955,48,0.205038609749417,1
337,956,48,0.214318733253885,1
337,957,48,0.157496719671672,1
338,956,48,0.176823098938207,1
338,957,48,0.117793346899655,1
338,980,48,0.161550741005136,1
339,957,48,0.118209941766694,1
339,979,48,0.150876954924468,1
339,980,48,0.212842573729542,1
339,981,48,0.187156027178746,1
340,978,48,0.116297779099718,1
340,979,48,0.204931275390335,1
340,980,48,0.199332600278367,1
340,981,48,0.151286224580694,1
340,982,48,0.141746644935679,1
341,956,48,0.140100439239425,1
341,970,48,0.11955473034792,1
341,971,48,0.118487451843216,1
341,978,48,0.123822760895038,1
341,979,48,0.205528951352969,1
341,980,48,0.149231114311069,1
341,982,48,0.118725344541644,1
341,983,48,0.149240147167489,1
342,965,48,0.126427980364478,1
342,966,48,0.126801507231608,1
342,982,48,0.116097266174796,1
342,983,48,0.122776633642135,1
344,954,48,0.117738184058099,1
345,954,48,0.114066322034733,1
345,984,48,0.140091771465859,1
345,985,48,0.145434441059093,1
345,986,48,0.178641282212438,1
346,983,48,0.14131657733364,1
346,984,48,0.184191919486936,1
346,985,48,0.152405792371587,1
346,986,48,0.156523196799255,1
347,953,48,0.133380618236487,1
347,984,48,0.126578606483928,1
348,953,48,0.122451674571456,1
349,952,48,0.169358650235457,1
349,953,48,0.129293574570034,1
349,986,48,0.133217496861936,1
350,952,48,0.144663268302734,1
350,953,48,0.114674938706122,1
350,985,48,0.122506966958541,1
350,986,48,0.150187490066213,1
350,987,48,0.115674912420156,1
351,951,48,0.148138350667781,1
351,952,48,0.134575946608022,1
351,953,48,0.11740630019006,1
351,985,48,0.153838907449754,1
351,986,48,0.187896521198501,1
351,987,48,0.127865252676434,1
352,951,48,0.140565672564113,1
352,952,48,0.131999815998242,1
352,953,48,0.129573522457872,1
352,985,48,0.157034724985206,1
352,986,48,0.192373873766503,1
352,987,48,0.133400474032999,1
353,951,48,0.145715166220104,1
353,952,48,0.134433422972558,1
353,953,48,0.125933870163724,1
354,951,48,0.165209577814419,1
354,952,48,0.155911612357569,1
354,953,48,0.132010568277136,1
355,952,48,0.175361330744433,1
355,953,48,0.135352948913179,1
356,951,48,0.173920949339784,1
356,952,48,0.149310572827717,1
357,949,48,0.160836191421749,1
357,950,48,0.173453490187374,1
357,951,48,0.164416641409214,1
357,952,48,0.118973589105513,1
358,948,48,0.126096826662147,1
358,949,48,0.140553554168733,1
358,950,48,0.16300876415544,1
358,951,48,0.151545633613777,1
359,948,48,0.128185018149093,1
359,949,48,0.130868247580631,1
359,950,48,0.144780247915283,1
359,951,48,0.128739802764813,1
360,948,48,0.141144799962389,1
360,949,48,0.122144887205415,1
360,950,48,0.119948207226492,1
361,951,48,0.114854100172517,1
364,951,48,0.145787016881149,1
365,951,48,0.114904587598168,1
366,986,48,0.121429454357059,1
367,986,48,0.164122066653483,1
367,987,48,0.154910531618107,1
368,986,48,0.138627777444362,1
368,987,48,0.126001905120101,1
369,986,48,0.12989061458189,1
370,985,48,0.128834606538196,1
370,986,48,0.138252660700286,1
371,985,48,0.131249017220511,1
374,952,48,0.140491619629078,1
375,982,48,0.125427570906392,1
376,981,48,0.128176715458381,1
377,948,48,0.179732927053431,1
377,976,48,0.125535647208049,1
377,977,48,0.15195188839224,1
378,969,48,0.128968615499355,1
378,975,48,0.119705792211421,1
378,976,48,0.203905840091449,1
379,967,48,0.144026186945598,1
379,968,48,0.195710036217161,1
379,969,48,0.255390365901582,1
379,970,48,0.206740673122336,1
379,971,48,0.125637552431786,1
379,975,48,0.12400633868628,1
379,976,48,0.204240303093199,1
380,967,48,0.145324044714783,1
380,968,48,0.191317689069815,1
380,969,48,0.239833149127443,1
380,970,48,0.211887705413279,1
380,971,48,0.152231212106166,1
380,976,48,0.14438120057897,1
381,968,48,0.119950374169884,1
381,969,48,0.128046357325762,1
381,970,48,0.12185627154401,1
332,959,49,0.297505499561006,1
332,960,49,0.196709350426685,1
332,961,49,0.164361926088576,1
332,962,49,0.216055043753885,1
332,963,49,0.233240506503233,1
332,964,49,0.182791626535032,1
332,965,49,0.152944183589474,1
332,966,49,0.127882635331032,1
333,957,49,0.188416575835623,1
333,958,49,0.268243567075236,1
333,959,49,0.279627957489093,1
333,960,49,0.216289214962575,1
333,961,49,0.182892766262463,1
333,962,49,0.211070791308371,1
333,963,49,0.218805813513417,1
333,964,49,0.22222298902707,1
333,965,49,0.25561610487403,1
333,966,49,0.214633740872575,1
333,967,49,0.126569950487228,1
334,956,49,0.158009060461395,1
334,957,49,0.184811759511869,1
334,958,49,0.225880624595995,1
334,959,49,0.242219895950916,1
334,960,49,0.217464875967458,1
334,961,49,0.176407834857056,1
334,962,49,0.151875232769762,1
334,963,49,0.137191482612305,1
334,964,49,0.178512137097044,1
334,965,49,0.258380370922295,1
334,966,49,0.239744634200641,9
334,967,49,0.150465117911398,1
335,955,49,0.216328832340669,1
335,956,49,0.219267537331959,1
335,957,49,0.224579422196793,1
335,958,49,0.20936898702651,1
335,959,49,0.199827181553772,1
335,960,49,0.182986969415667,1
335,961,49,0.149218736824631,1
335,962,49,0.114660830020344,1
335,964,49,0.114699787893928,1
335,965,49,0.165237877624039,1
335,966,49,0.175462187827073,1
335,967,49,0.14146229249986,1
335,976,49,0.156167017256124,1
335,977,49,0.115790949883404,1
336,954,49,0.203561932042959,1
336,955,49,0.226678318855168,1
336,956,49,0.253031483143677,1
336,957,49,0.20789621923965,1
336,958,49,0.147533314163736,1
336,959,49,0.120059416174574,1
336,976,49,0.161830429801916,1
336,977,49,0.11476239371496,1
337,955,49,0.207403145403126,1
337,956,49,0.216118827261542,1
337,957,49,0.152751078313428,1
338,956,49,0.185131336554667,1
338,957,49,0.117046693578847,1
338,979,49,0.135202523000455,1
338,980,49,0.208571434089732,1
338,981,49,0.180205261828472,1
339,979,49,0.181059673475548,1
339,980,49,0.298580986541491,1
339,981,49,0.254340599597005,1
339,982,49,0.194761656954207,1
340,979,49,0.204879103872808,1
340,980,49,0.245572699113598,1
340,981,49,0.188995491250307,1
340,982,49,0.155148165225477,1
340,983,49,0.201485223000615,1
341,979,49,0.177094885457728,1
341,980,49,0.148706749340896,1
341,983,49,0.148385252668897,1
341,984,49,0.184039821259203,1
342,984,49,0.115912734457387,1
344,951,49,0.182165379894854,1
344,954,49,0.113924033936595,1
344,986,49,0.125207814582003,1
345,985,49,0.121274353028431,1
345,986,49,0.138490058770331,1
346,953,49,0.160491965397871,1
346,984,49,0.133051384163356,1
346,985,49,0.125326289856566,1
346,986,49,0.128448184002512,1
347,951,49,0.14192333326016,1
347,952,49,0.136710362295034,1
347,953,49,0.120954163588586,1
348,951,49,0.13230554344632,1
348,952,49,0.134395901876658,1
349,951,49,0.140280071780471,1
349,952,49,0.14783769904906,1
349,953,49,0.11655709391787,1
350,951,49,0.12981380586015,1
350,952,49,0.131591111631596,1
350,986,49,0.115692271521022,1
351,951,49,0.127308701530776,1
351,952,49,0.128000427547353,1
351,953,49,0.117331046014666,1
351,985,49,0.126055113001858,1
351,986,49,0.154263981660499,1
351,987,49,0.120346818818754,1
352,951,49,0.129624728272365,1
352,952,49,0.13660904591461,1
352,953,49,0.143522313722715,1
352,985,49,0.127187706006833,1
352,986,49,0.159190456800146,1
352,987,49,0.124381926505006,1
353,951,49,0.144648241021388,1
353,952,49,0.142136930283496,1
353,953,49,0.137712243861403,1
354,951,49,0.162448950817828,1
354,952,49,0.166890360390008,1
354,953,49,0.141986268833447,1
355,951,49,0.177773456714693,1
355,952,49,0.188587493495637,1
355,953,49,0.146948545646521,1
356,949,49,0.176668975089478,1
356,950,49,0.182016449644146,1
356,951,49,0.173844234832974,1
356,952,49,0.160247713191664,1
357,949,49,0.139608990610446,1
357,950,49,0.16223627239006,1
357,951,49,0.170092148796654,1
357,952,49,0.129969366486562,1
358,949,49,0.129470733969165,1
358,950,49,0.154143139235817,1
358,951,49,0.153032639631944,1
359,948,49,0.12427671198185,1
359,949,49,0.130641672450678,1
359,950,49,0.149775829706137,1
359,951,49,0.13242211086855,1
360,949,49,0.116900154031989,1
360,950,49,0.125918042055472,1
361,950,49,0.148369860304697,1
361,951,49,0.122039496029265,1
362,951,49,0.141612035354341,1
364,951,49,0.174594692081584,1
364,952,49,0.144873461811721,1
365,951,49,0.159474797459099,1
365,952,49,0.144247486039467,1
367,986,49,0.149036218951352,1
367,987,49,0.145215579776539,1
375,982,49,0.128070358579197,1
375,983,49,0.156397431644477,1
376,981,49,0.124744759977573,1
376,982,49,0.170867066596483,1
378,968,49,0.118510522724217,1
378,969,49,0.125596180300619,1
378,976,49,0.148950153612733,1
379,966,49,0.128775592661373,1
379,967,49,0.18086846427497,1
379,968,49,0.220621123232281,1
379,969,49,0.237644442086978,1
379,970,49,0.183049669451629,1
379,975,49,0.121377117963405,1
379,976,49,0.193382609469034,1
380,967,49,0.155360808322645,1
380,968,49,0.190994154999953,1
380,969,49,0.211495394444466,1
380,970,49,0.179739804743326,1
380,971,49,0.127447374130973,1
380,975,49,0.114561197731794,1
380,976,49,0.173395689327776,1
331,962,50,0.154409590834922,1
331,963,50,0.162784968365924,1
331,964,50,0.120985030755051,1
332,958,50,0.268056244240524,1
332,959,50,0.273222519930933,1
332,960,50,0.212083036517047,1
332,961,50,0.184014595211677,1
332,962,50,0.226689247787056,1
332,963,50,0.248518635100771,1
332,964,50,0.194334533568732,1
332,965,50,0.171681931526662,1
332,966,50,0.144976474060887,1
333,957,50,0.199947070052286,1
333,958,50,0.261417483408044,1
333,959,50,0.300622153001466,10
333,960,50,0.268375138225079,10
333,961,50,0.223616663380136,1
333,962,50,0.226376571987885,1
333,963,50,0.225996202761458,1
333,964,50,0.239536230775326,1
333,965,50,0.320892495206109,9
333,966,50,0.290006085342333,9
333,967,50,0.156930052197898,1
334,956,50,0.157909180858654,1
334,957,50,0.191511712941429,1
334,958,50,0.2462222875027,1
334,959,50,0.291168297165949,10
334,960,50,0.279979803145441,10
334,961,50,0.219297120820002,1
334,962,50,0.169507992676485,1
334,963,50,0.142195367093872,1
334,964,50,0.18885121286177,1
334,965,50,0.323352140831724,9
334,966,50,0.33628806271398,9
334,967,50,0.203524010533606,9
334,975,50,0.114197445663659,1
334,976,50,0.12947817694864,1
335,955,50,0.204795629444766,1
335,956,50,0.189246232509823,1
335,957,50,0.197910520123885,1
335,958,50,0.204364478371031,1
335,959,50,0.211351222047726,1
335,960,50,0.199104034858017,1
335,961,50,0.157861496327172,1
335,962,50,0.11494623059726,1
335,965,50,0.180227661428097,1
335,966,50,0.212765670792872,9
335,967,50,0.171836573557506,1
335,975,50,0.131422820212758,1
335,976,50,0.176574489291484,1
335,977,50,0.132440918523965,1
336,954,50,0.188762356405847,1
336,955,50,0.202007432804263,1
336,956,50,0.208808832159776,1
336,957,50,0.174079948811144,1
336,958,50,0.133754015558088,1
336,975,50,0.113945220518994,1
336,976,50,0.16413715281916,1
336,977,50,0.126028815259502,1
337,954,50,0.17264194633348,1
337,955,50,0.198617461851668,1
337,956,50,0.195516612965727,1
337,957,50,0.137154114615666,1
338,956,50,0.18466600901505,1
338,979,50,0.140933864510828,1
338,980,50,0.21621012152878,1
338,981,50,0.191140035042301,1
338,982,50,0.146088010028991,1
339,979,50,0.192939292892454,1
339,980,50,0.339270907400008,1
339,981,50,0.293128792092051,1
339,982,50,0.203897478516405,1
339,983,50,0.202890415128883,1
340,956,50,0.116842376726124,1
340,979,50,0.181080188776571,1
340,980,50,0.264198661036257,1
340,981,50,0.21314370819978,1
340,982,50,0.160980198942362,1
340,983,50,0.197470159540736,1
340,984,50,0.197658777830737,1
341,979,50,0.127855736968497,1
341,980,50,0.135392872489796,1
341,983,50,0.149054991276169,1
341,984,50,0.175728839632905,1
341,985,50,0.127700635639869,1
342,984,50,0.114531802673612,1
343,954,50,0.155400932105989,1
344,951,50,0.187497732953245,1
344,953,50,0.185292502969419,1
344,954,50,0.115070111453436,1
345,951,50,0.177376976735225,1
345,953,50,0.170118010794958,1
346,951,50,0.144901172778028,1
346,952,50,0.15217375277569,1
346,953,50,0.137422097207385,1
346,987,50,0.11441927471651,1
347,951,50,0.119704155227011,1
347,952,50,0.116441786620331,1
347,988,50,0.171471219835559,1
348,988,50,0.119334020097364,1
349,952,50,0.119832169763244,1
350,952,50,0.116306270220291,1
351,952,50,0.120359902917167,1
351,953,50,0.114167143786775,1
352,951,50,0.11709686302911,1
352,952,50,0.13670241291031,1
352,953,50,0.145775169353692,1
353,951,50,0.137603684708229,1
353,952,50,0.151069624456462,1
353,953,50,0.151093955462153,1
354,951,50,0.155269196080018,1
354,952,50,0.168041337083213,1
354,953,50,0.145089508423239,1
355,950,50,0.182306831835489,1
355,951,50,0.173982353920458,1
355,952,50,0.186445905697073,1
355,953,50,0.14418899034476,1
356,950,50,0.173720660175321,1
356,951,50,0.176811322071948,1
356,952,50,0.16335333170844,1
356,953,50,0.114159736137898,1
357,950,50,0.155619451859421,1
357,951,50,0.168260198365767,1
357,952,50,0.135616208981528,1
358,949,50,0.122559562443253,1
358,950,50,0.14343623660723,1
358,951,50,0.143575721811199,1
359,949,50,0.127167791325989,1
359,950,50,0.146060958567194,1
359,951,50,0.126100842573541,1
360,949,50,0.114347541824127,1
360,950,50,0.130944467459058,1
360,951,50,0.114856008024851,1
361,950,50,0.140946300881597,1
361,951,50,0.123247237217837,1
362,951,50,0.130433704769414,1
363,951,50,0.152432879163982,1
364,951,50,0.20237096111194,1
364,952,50,0.16282539834779,1
365,951,50,0.208499218345833,1
365,952,50,0.168063371599983,1
366,951,50,0.124132928221696,1
375,982,50,0.125332060521033,1
375,983,50,0.163809167093853,1
375,984,50,0.1283109128494,1
376,981,50,0.131902209330689,1
376,982,50,0.211431822920401,1
376,983,50,0.268679994185055,1
377,982,50,0.2286148596353,1
378,968,50,0.12587124078896,1
379,966,50,0.126078831610503,1
379,967,50,0.193335242912941,1
379,968,50,0.220377554084316,1
379,969,50,0.192035559729486,1
379,970,50,0.145962939709322,1
379,975,50,0.115351578557021,1
379,976,50,0.179318169377529,1
380,967,50,0.146357747373782,1
380,968,50,0.169822741204118,1
380,969,50,0.163600587015543,1
380,970,50,0.140753808002597,1
380,975,50,0.122517495476977,1
380,976,50,0.196937491879851,1
380,977,50,0.187422384562921,1
331,961,51,0.181860900794599,1
331,962,51,0.197370951219372,1
331,963,51,0.184742358439006,1
331,964,51,0.129178208388162,1
332,958,51,0.21916173396549,1
332,959,51,0.238090290689803,10
332,960,51,0.225180701880502,10
332,961,51,0.221329077770562,1
332,962,51,0.252503361353168,1
332,963,51,0.253884434459337,1
332,964,51,0.199494626404356,1
332,965,51,0.180220901506864,9
332,966,51,0.152885464134308,1
333,957,51,0.225190712216822,1
333,958,51,0.258965492745498,10
333,959,51,0.317597987531408,10
333,960,51,0.323115944002037,10
333,961,51,0.275998138878271,10
333,962,51,0.245600633840364,1
333,963,51,0.23316040025894,1
333,964,51,0.251162400253476,9
333,965,51,0.33818950843266,9
333,966,51,0.321833537481384,9
333,967,51,0.178585695403696,1
334,956,51,0.164461004864411,1
334,957,51,0.203766519763607,1
334,958,51,0.262214141302987,10
334,959,51,0.335382256822551,10
334,960,51,0.350091256581266,10
334,961,51,0.276590303267496,10
334,962,51,0.195643296716073,1
334,963,51,0.162510473167164,1
334,964,51,0.203544196082374,9
334,965,51,0.34514271159425,9
334,966,51,0.395856747706267,9
334,967,51,0.254419127741219,9
334,968,51,0.143602573066269,1
334,975,51,0.133343403339109,1
334,976,51,0.14336452726858,1
334,977,51,0.119632916963012,1
335,955,51,0.190361866827385,1
335,956,51,0.162804282426588,1
335,957,51,0.177017134586687,1
335,958,51,0.197225271383751,1
335,959,51,0.217326073821732,10
335,960,51,0.216371417489061,10
335,961,51,0.174679379526851,1
335,962,51,0.123966874407447,1
335,964,51,0.115204944795233,1
335,965,51,0.184877674632319,9
335,966,51,0.238630024470444,9
335,967,51,0.198886021509834,1
335,968,51,0.141207476444619,1
335,975,51,0.154445863582999,1
335,976,51,0.177185967741373,1
335,977,51,0.150476588579134,1
335,978,51,0.123376841631015,1
336,954,51,0.174594939395775,1
336,955,51,0.179412737613587,1
336,956,51,0.169478114766786,1
336,957,51,0.148738358449935,1
336,958,51,0.124476365195535,1
336,975,51,0.122457374574726,1
336,976,51,0.147631992526118,1
336,977,51,0.146958002470127,1
336,978,51,0.133937923101586,1
337,953,51,0.149653574057504,1
337,954,51,0.16110479818738,1
337,955,51,0.189665724485961,1
337,956,51,0.171800665892283,1
337,957,51,0.122818441517354,1
337,977,51,0.123517893158197,1
337,978,51,0.116636493550187,1
338,955,51,0.256691167887331,1
338,956,51,0.180380972673054,1
338,976,51,0.121077055187997,1
338,977,51,0.129176759833613,1
338,978,51,0.115496339797074,1
338,979,51,0.137253334713896,1
338,980,51,0.198604601513714,1
338,981,51,0.188539067021581,1
338,982,51,0.140802104931125,1
339,956,51,0.148059740085504,1
339,979,51,0.194276744486001,1
339,980,51,0.33128484951379,1
339,981,51,0.300395566094647,1
339,982,51,0.197893043254357,1
339,983,51,0.16346911008063,1
340,979,51,0.158900592790919,1
340,980,51,0.254947061101868,1
340,981,51,0.226052920149361,1
340,982,51,0.167970357910271,1
340,983,51,0.169647607425983,1
340,984,51,0.15346951426268,1
341,955,51,0.135478219439574,1
341,980,51,0.120284907832831,1
341,981,51,0.119095821200413,1
341,982,51,0.127553036175047,1
341,983,51,0.154130172906066,1
341,984,51,0.15607463951719,1
342,983,51,0.120644573328375,1
342,984,51,0.12256486203307,1
343,954,51,0.151010869670697,1
344,951,51,0.204594221478008,1
344,953,51,0.190657383732417,1
344,954,51,0.115388298826016,1
345,951,51,0.164362444270691,1
345,952,51,0.171953211640933,1
345,953,51,0.144166826282461,1
346,951,51,0.121660587134254,1
346,952,51,0.125513023847966,1
346,987,51,0.12690887692129,1
346,988,51,0.187184927608545,1
347,987,51,0.122269510004165,1
347,988,51,0.207453267745924,1
347,989,51,0.216300662076578,1
348,988,51,0.129209417083748,1
348,989,51,0.13908885353526,1
351,952,51,0.117543206260318,1
352,952,51,0.137050207324664,1
352,953,51,0.138429148818041,1
353,951,51,0.133759091387446,1
353,952,51,0.163397895370363,1
353,953,51,0.160377965332486,1
354,951,51,0.153933876099264,1
354,952,51,0.166282933182112,1
354,953,51,0.14478396940502,1
355,951,51,0.181423095791428,1
355,952,51,0.174971940438452,1
355,953,51,0.136530329340536,1
356,950,51,0.182104340397035,1
356,951,51,0.193866874209596,1
356,952,51,0.167520799594574,1
356,953,51,0.127282238912292,1
357,950,51,0.15250780358712,1
357,951,51,0.165723084513901,1
357,952,51,0.138985487980106,1
358,950,51,0.128580815070319,1
358,951,51,0.128221785525553,1
359,949,51,0.117791085741333,1
359,950,51,0.13105221400846,1
360,949,51,0.115046039538803,1
360,950,51,0.131573564100871,1
361,950,51,0.136744809628841,1
361,951,51,0.119865003666374,1
362,951,51,0.122145370056931,1
363,951,51,0.147544042888897,1
364,951,51,0.220910056869074,1
364,952,51,0.152298057599051,1
365,951,51,0.2448026569364,1
365,952,51,0.160523256531521,1
366,950,51,0.139830383919245,1
366,951,51,0.145966131240079,1
375,982,51,0.119563515890149,1
375,983,51,0.165247958621556,1
375,984,51,0.151514566240586,1
376,981,51,0.143673846660867,1
376,982,51,0.239815742919112,1
378,968,51,0.120298121476774,1
379,967,51,0.177527755953936,1
379,968,51,0.194576147756898,1
379,969,51,0.143167900709523,1
379,976,51,0.168741389344235,1
380,967,51,0.126789447720559,1
380,968,51,0.14064198665747,1
380,969,51,0.120029820909666,1
380,977,51,0.213528764618977,1
331,960,52,0.196937939400769,1
331,961,52,0.237497278366208,1
331,962,52,0.248198233677334,1
331,963,52,0.19137471265624,1
331,964,52,0.12676479873948,1
332,958,52,0.187229373501806,1
332,959,52,0.21365209196244,10
332,960,52,0.240151831128406,10
332,961,52,0.273575778811232,10
332,962,52,0.290543746394512,10
332,963,52,0.24754732627921,1
332,964,52,0.194549979560071,1
332,965,52,0.17492308999721,1
332,966,52,0.150185805974338,1
332,967,52,0.1140268577559,1
333,957,52,0.237106262852683,1
333,958,52,0.250714902889374,10
333,959,52,0.319317221575332,10
333,960,52,0.359738229469695,10
333,961,52,0.321001855186188,10
333,962,52,0.264017226634674,10
333,963,52,0.247341019136089,1
333,964,52,0.271435050723905,1
333,965,52,0.314413640663691,9
333,966,52,0.300431933057654,9
333,967,52,0.187619588188425,1
333,968,52,0.114159512377439,1
334,956,52,0.18332557787434,1
334,957,52,0.212593634330564,1
334,958,52,0.25947062609307,10
334,959,52,0.351407392046884,10
334,960,52,0.405934165056455,10
334,961,52,0.32940839430531,10
334,962,52,0.221256320290815,10
334,963,52,0.200524513358688,1
334,964,52,0.238462981399429,9
334,965,52,0.327448394007591,9
334,966,52,0.38772175956934,9
334,967,52,0.277670524548218,9
334,968,52,0.169509123255646,1
334,969,52,0.132204921901005,1
334,975,52,0.142039382500274,1
334,976,52,0.144203051923073,1
335,955,52,0.18074749230476,1
335,956,52,0.159226529341497,1
335,957,52,0.167055048087771,1
335,958,52,0.184725352644128,1
335,959,52,0.212889092351265,10
335,960,52,0.231560348101555,10
335,961,52,0.191936045209599,10
335,962,52,0.134476808947856,1
335,963,52,0.117437073141594,1
335,964,52,0.129176724503014,1
335,965,52,0.179258225128271,9
335,966,52,0.241959368115538,9
335,967,52,0.214846289754814,1
335,968,52,0.161612510668663,1
335,969,52,0.132194275613907,1
335,974,52,0.120700383897576,1
335,975,52,0.167347844536698,1
335,976,52,0.164345214715355,1
335,977,52,0.157459316344434,1
335,978,52,0.140644518683716,1
336,954,52,0.15329867904073,1
336,955,52,0.160454173434047,1
336,956,52,0.147583436506533,1
336,957,52,0.132108963994728,1
336,958,52,0.115153008815032,1
336,974,52,0.118775231347116,1
336,975,52,0.13456745548745,1
336,976,52,0.134154417234021,1
336,977,52,0.165490738719482,1
336,978,52,0.170368905153736,1
337,953,52,0.121383241933859,1
337,954,52,0.147957611101308,1
337,955,52,0.175310607781456,1
337,956,52,0.148041874579389,1
337,976,52,0.121922116003263,1
337,977,52,0.143436366152759,1
337,978,52,0.139090514073402,1
338,953,52,0.147541322432792,1
338,954,52,0.200769660606731,1
338,955,52,0.240872410467316,1
338,956,52,0.162875567798053,1
338,976,52,0.135384805336409,1
338,977,52,0.137602577682801,1
338,978,52,0.119940493379093,1
338,979,52,0.134295892728388,1
338,980,52,0.183756505187615,1
338,981,52,0.18583897311756,1
338,982,52,0.129974383431589,1
339,955,52,0.234438920413728,1
339,956,52,0.134971979066573,1
339,979,52,0.188682120616026,1
339,980,52,0.299046950031887,1
339,981,52,0.288863022703254,1
339,982,52,0.183060881028307,1
339,983,52,0.118327604437486,1
340,955,52,0.167654549464675,1
340,979,52,0.14255489126702,1
340,980,52,0.22690502353065,1
340,981,52,0.227741840539535,1
340,982,52,0.172081756136148,1
340,983,52,0.135788457427429,1
341,955,52,0.11523737828491,1
341,981,52,0.125187075520521,1
341,982,52,0.140396898293758,1
341,983,52,0.14982291361744,1
341,984,52,0.132636708925517,1
342,954,52,0.148340406362183,1
342,983,52,0.129700488853008,1
342,984,52,0.131137725834365,1
343,954,52,0.135967830877417,1
345,951,52,0.160248325588709,1
345,953,52,0.126639410444422,1
345,988,52,0.121962322224671,1
346,987,52,0.143891424264999,1
346,988,52,0.201540244519777,1
346,989,52,0.174694795444784,1
347,987,52,0.134317409063043,1
347,988,52,0.218515019131755,1
347,989,52,0.209766762461267,1
348,988,52,0.137474256948045,1
348,989,52,0.142703939286392,1
351,952,52,0.11525103944977,1
351,953,52,0.12042653642646,1
352,952,52,0.131370000967587,1
352,953,52,0.133353449006028,1
353,951,52,0.127864192758471,1
353,952,52,0.157929872812671,1
353,953,52,0.153443746479306,1
354,951,52,0.148771215906797,1
354,952,52,0.150941998556816,1
354,953,52,0.132299266376604,1
355,951,52,0.180442730559715,1
355,952,52,0.152647877634403,1
355,953,52,0.123203745250743,1
356,951,52,0.200759862254004,1
356,952,52,0.163154561759724,1
356,953,52,0.138292042541056,1
357,951,52,0.162881656437909,1
357,952,52,0.140814152665307,1
357,953,52,0.123803128858985,1
358,950,52,0.115988483261163,1
358,951,52,0.115939032199742,1
360,950,52,0.122979537270908,1
361,950,52,0.128939550193428,1
363,951,52,0.142392841587299,1
364,951,52,0.216853326856371,1
364,952,52,0.129875716846072,1
365,951,52,0.241516369514347,1
365,952,52,0.133411096766365,1
366,951,52,0.149304166212472,1
376,981,52,0.149464096056267,1
377,978,52,0.128748741406303,1
378,977,52,0.130575721999629,1
379,967,52,0.146318365533013,1
379,968,52,0.154844581167057,1
379,976,52,0.163879851845138,1
380,975,52,0.137343392410177,1
380,976,52,0.235664209133026,1
380,977,52,0.245987621665628,1
330,961,53,0.192184796178718,1
330,962,53,0.156580102617018,1
331,960,53,0.24767746065137,1
331,961,53,0.307213123310667,10
331,962,53,0.275288158718994,10
331,963,53,0.178778011629703,1
331,964,53,0.128141043330483,1
332,958,53,0.176322393692348,1
332,959,53,0.207611737258302,1
332,960,53,0.27682647654345,10
332,961,53,0.339708323766592,10
332,962,53,0.31167149157026,10
332,963,53,0.227258706378134,10
332,964,53,0.186328313687479,1
332,965,53,0.159024768068751,1
332,966,53,0.138201419555194,1
332,967,53,0.115934462775634,1
333,957,53,0.217842748498238,1
333,958,53,0.225123042343299,1
333,959,53,0.291179838494883,10
333,960,53,0.357607441057491,10
333,961,53,0.337459130741022,10
333,962,53,0.27702743698929,10
333,963,53,0.274052741894713,10
333,964,53,0.296718993324778,10
333,965,53,0.269112864681263,1
333,966,53,0.247284796376569,1
333,967,53,0.196749957061546,1
333,968,53,0.134609534230592,1
334,956,53,0.206634963970798,1
334,957,53,0.206289124516242,1
334,958,53,0.231966414450158,10
334,959,53,0.321551669964346,10
334,960,53,0.399240382704815,10
334,961,53,0.334898298280512,10
334,962,53,0.243478230556936,10
334,963,53,0.259668430338753,10
334,964,53,0.289100279450904,10
334,965,53,0.286313260497027,9
334,966,53,0.31795520343877,9
334,967,53,0.276377801492723,1
334,968,53,0.187563353652039,1
334,969,53,0.138908514382239,1
334,975,53,0.137403901949015,1
335,955,53,0.177634642792101,1
335,956,53,0.17134530158152,1
335,957,53,0.157049599167291,1
335,958,53,0.162529233715114,1
335,959,53,0.193060276639531,10
335,960,53,0.223752427094367,10
335,961,53,0.190599818410144,10
335,962,53,0.144535218435902,1
335,963,53,0.143188357126215,1
335,964,53,0.15015649335422,1
335,965,53,0.1659637447759,1
335,966,53,0.217004518265401,1
335,967,53,0.22048359298811,1
335,968,53,0.174686068786886,1
335,969,53,0.13920645732172,1
335,974,53,0.139711355131967,1
335,975,53,0.168156031983708,1
335,976,53,0.14732289689429,1
335,977,53,0.151482132750909,1
336,954,53,0.134793901071874,1
336,955,53,0.145197231418908,1
336,956,53,0.132782459422336,1
336,957,53,0.116213868927624,1
336,974,53,0.141811782782956,1
336,975,53,0.155095192881045,1
336,976,53,0.138624220830751,1
336,977,53,0.17333202358878,1
336,978,53,0.182254836970956,1
337,954,53,0.137752391198479,1
337,955,53,0.156668994403539,1
337,956,53,0.127066168747042,1
337,975,53,0.133411379411155,1
337,976,53,0.139037365075976,1
337,977,53,0.151433517846993,1
337,978,53,0.148381919815746,1
338,953,53,0.128777241422649,1
338,954,53,0.171752840038406,1
338,955,53,0.204938105972765,1
338,956,53,0.141215366945012,1
338,976,53,0.134558092878774,1
338,977,53,0.128886495410932,1
338,978,53,0.118996024035736,1
338,979,53,0.136206229981094,1
338,980,53,0.177780887917303,1
338,981,53,0.177578690900505,1
338,982,53,0.118619329191582,1
339,953,53,0.17632138088185,1
339,954,53,0.186083131108837,1
339,955,53,0.191285338018202,1
339,956,53,0.121793547954316,1
339,979,53,0.171412406165463,1
339,980,53,0.246031125409588,1
339,981,53,0.246056704763102,1
339,982,53,0.160448909174829,1
340,954,53,0.178732600033409,1
340,955,53,0.136678647194199,1
340,979,53,0.125439406656982,1
340,980,53,0.186491317293367,1
340,981,53,0.213049516823442,1
340,982,53,0.174769908297782,1
340,983,53,0.115331534330649,1
341,952,53,0.195711743862769,1
341,954,53,0.150104168737432,1
341,981,53,0.13379870876554,1
341,982,53,0.151684942164752,1
341,983,53,0.138023694866483,1
342,953,53,0.176945766777159,1
342,954,53,0.127250241166667,1
342,983,53,0.128463882565235,1
342,984,53,0.13630779367571,1
343,954,53,0.120680304340604,1
343,984,53,0.114680568048194,1
345,953,53,0.120543127402422,1
345,987,53,0.115092675929188,1
346,987,53,0.157647899303836,1
346,988,53,0.184981028410606,1
347,987,53,0.150264451887215,1
347,988,53,0.199296492406418,1
347,989,53,0.171340025545436,1
348,988,53,0.14643201229241,1
348,989,53,0.143783689492463,1
349,989,53,0.115079780260634,1
351,953,53,0.127927552298943,1
352,952,53,0.124170802623584,1
352,953,53,0.131739700353183,1
352,990,53,0.122409737150709,1
353,951,53,0.123197315081766,1
353,952,53,0.142627260110181,1
353,953,53,0.137268974392288,1
354,951,53,0.145146532009664,1
354,952,53,0.13666391433451,1
354,953,53,0.119035193892913,1
355,951,53,0.172850985709574,1
355,952,53,0.137597749167635,1
355,953,53,0.116366391122542,1
356,951,53,0.193390205547771,1
356,952,53,0.158332512093193,1
356,953,53,0.147093083126115,1
357,951,53,0.167864966734121,1
357,952,53,0.151358051688007,1
357,953,53,0.147849664345179,1
358,951,53,0.11868559761802,1
358,952,53,0.114217548774363,1
364,952,53,0.120087268463276,1
375,985,53,0.159477612130135,1
376,981,53,0.13991341082637,1
377,978,53,0.117208790366033,1
378,977,53,0.129566750759773,1
379,968,53,0.114516045226558,1
379,976,53,0.158948453975394,1
380,975,53,0.157878655221311,1
380,976,53,0.25209107681918,1
330,961,54,0.186200817333361,10
331,960,54,0.283422322475282,10
331,961,54,0.344720958459789,10
331,962,54,0.259319528898969,10
331,963,54,0.155504709851462,1
331,964,54,0.125014026247714,1
332,959,54,0.195562860719525,10
332,960,54,0.305355463980737,10
332,961,54,0.382614745069945,10
332,962,54,0.307318220065161,10
332,963,54,0.216558316356588,10
332,964,54,0.184030329104999,10
332,965,54,0.149417165244225,1
332,966,54,0.130808727298559,1
332,967,54,0.124281481612684,1
333,956,54,0.190480471647477,1
333,957,54,0.179718005763881,1
333,958,54,0.182558656566701,1
333,959,54,0.244133942916493,10
333,960,54,0.333778059208242,10
333,961,54,0.344109503563633,10
333,962,54,0.308410147550944,10
333,963,54,0.325845821600827,10
333,964,54,0.321851720962888,10
333,965,54,0.241253509859451,10
333,966,54,0.219766923568797,1
333,967,54,0.226235178931582,1
333,968,54,0.170773063650005,1
333,969,54,0.123536100193433,1
334,955,54,0.209849648045996,1
334,956,54,0.242712475159056,1
334,957,54,0.194289051311241,1
334,958,54,0.189868946090123,1
334,959,54,0.263799755022339,10
334,960,54,0.344221195363231,10
334,961,54,0.312736544247241,10
334,962,54,0.284333498617726,10
334,963,54,0.340005642532162,10
334,964,54,0.341610099237528,10
334,965,54,0.258993922100646,10
334,966,54,0.263508960640677,1
334,967,54,0.289383937051613,1
334,968,54,0.216836792136144,1
334,969,54,0.145888898551153,1
334,974,54,0.123420969548887,1
335,955,54,0.180066000384962,1
335,956,54,0.196324635536609,1
335,957,54,0.148952968283769,1
335,958,54,0.137759410210769,1
335,959,54,0.165856504631747,1
335,960,54,0.198300499273179,10
335,961,54,0.180524085151831,10
335,962,54,0.164320683502937,1
335,963,54,0.177516980121309,10
335,964,54,0.173001941581279,10
335,965,54,0.152903741830741,1
335,966,54,0.18658930082064,1
335,967,54,0.225220813886979,1
335,968,54,0.189476281815322,1
335,969,54,0.140029742711274,1
335,973,54,0.121667912345067,1
335,974,54,0.158786686940463,1
335,975,54,0.163333287482067,1
335,976,54,0.140826565482344,1
336,955,54,0.130079986591331,1
336,956,54,0.123790044760571,1
336,974,54,0.157715616284825,1
336,975,54,0.179235048255474,1
336,976,54,0.166692520813727,1
336,977,54,0.174777327723525,1
336,978,54,0.169324261785982,1
337,955,54,0.129738398585495,1
337,974,54,0.12125713524996,1
337,975,54,0.162245823428596,1
337,976,54,0.170871553582527,1
337,977,54,0.15861708828947,1
337,978,54,0.148079619435749,1
337,979,54,0.130041276031938,1
337,980,54,0.126400516712362,1
338,954,54,0.137298816971388,1
338,955,54,0.152947669541886,1
338,956,54,0.115566777234168,1
338,976,54,0.126408972502336,1
338,977,54,0.116994734044914,1
338,978,54,0.121604470366531,1
338,979,54,0.152696092124866,1
338,980,54,0.179697478685992,1
338,981,54,0.164271868392295,1
339,953,54,0.136092465453034,1
339,954,54,0.138512847006542,1
339,955,54,0.141690316184363,1
339,979,54,0.153183454181254,1
339,980,54,0.195407865382693,1
339,981,54,0.197058522734392,1
339,982,54,0.138742060154537,1
340,953,54,0.1595950745942,1
340,954,54,0.128825985872094,1
340,980,54,0.154193226248016,1
340,981,54,0.196822243466642,1
340,982,54,0.175874048393876,1
341,953,54,0.152058575023679,1
341,954,54,0.115422275085173,1
341,981,54,0.146611880370781,1
341,982,54,0.157843571936726,1
341,983,54,0.124357560168716,1
342,953,54,0.152958904672297,1
342,983,54,0.11836039123315,1
342,984,54,0.144157004376001,1
342,985,54,0.134937720162626,1
343,984,54,0.128138499527371,1
343,985,54,0.131492869013265,1
345,953,54,0.115493136489452,1
346,987,54,0.158353121609146,1
346,988,54,0.151993448953267,1
347,987,54,0.164645195052699,1
347,988,54,0.16947716084062,1
347,989,54,0.126831514686836,1
348,987,54,0.121844577115815,1
348,988,54,0.155914697896529,1
348,989,54,0.142212914624597,1
349,988,54,0.122743505317349,1
349,989,54,0.136590579788316,1
350,989,54,0.115432568066283,1
351,953,54,0.13007637109339,1
351,989,54,0.123646814513132,1
351,990,54,0.125775494866276,1
352,952,54,0.121881415153473,1
352,953,54,0.132863213394273,1
352,989,54,0.134877104631992,1
352,990,54,0.1416940730047,1
353,952,54,0.126942770742383,1
353,953,54,0.121299261100568,1
353,989,54,0.119716332506723,1
353,990,54,0.124782811032455,1
354,952,54,0.124059040162788,1
354,957,54,0.137970522315324,1
355,952,54,0.12667863918593,1
355,990,54,0.130602172841246,1
356,952,54,0.146383420942227,1
356,953,54,0.140147370051467,1
356,990,54,0.138189619135203,1
357,951,54,0.160493307960625,1
357,952,54,0.150406739985353,1
357,953,54,0.153878489497249,1
358,951,54,0.118787926808943,1
358,952,54,0.116342048339985,1
358,953,54,0.118518413224611,1
365,952,54,0.118468349766144,1
365,990,54,0.120977976412162,1
366,990,54,0.116021505594153,1
373,986,54,0.117476419651765,1
373,987,54,0.133331920894507,1
374,985,54,0.131249759163085,1
374,986,54,0.178415013281008,1
375,983,54,0.129278559065554,1
375,985,54,0.189624481900323,1
376,981,54,0.122369907789021,1
377,979,54,0.128881219374848,1
377,980,54,0.169505401765908,1
378,977,54,0.116431611407883,1
379,976,54,0.147821282097496,1
380,975,54,0.187841016827823,1
381,976,54,0.240861858395149,1
330,961,55,0.165713439260435,1
331,960,55,0.283977955025373,10
331,961,55,0.316933795828144,10
331,962,55,0.209310055587751,1
331,963,55,0.132107362340917,1
331,964,55,0.117985580687598,1
332,959,55,0.182846895368385,10
332,960,55,0.309627592877314,10
332,961,55,0.374126874912439,10
332,962,55,0.273731421875708,10
332,963,55,0.19657060716529,10
332,964,55,0.167210938466439,1
332,965,55,0.133313737413003,1
332,966,55,0.118680227367006,1
332,967,55,0.123093030931044,1
332,968,55,0.116904405480709,1
333,956,55,0.165908805694803,1
333,958,55,0.13658285416405,1
333,959,55,0.19441515799514,10
333,960,55,0.300190365976954,10
333,961,55,0.350680830059914,10
333,962,55,0.336518324003072,10
333,963,55,0.338722670721929,10
333,964,55,0.295721021678007,10
333,965,55,0.210616110055852,1
333,966,55,0.204394485826259,1
333,967,55,0.242682279273968,1
333,968,55,0.200339263252437,1
333,969,55,0.140848199585662,1
334,955,55,0.20870950606975,1
334,956,55,0.255165286433644,1
334,957,55,0.171754712560141,1
334,958,55,0.144016211939877,1
334,959,55,0.195891164420222,1
334,960,55,0.265971903788844,10
334,961,55,0.288364531508252,10
334,962,55,0.320740738507498,10
334,963,55,0.371004592129907,10
334,964,55,0.330785463276952,10
334,965,55,0.227933803459553,10
334,966,55,0.236030540334872,1
334,967,55,0.303014364290883,1
334,968,55,0.239204452899083,1
334,969,55,0.143691464852791,1
334,973,55,0.142631264244709,1
335,955,55,0.18211987408363,1
335,956,55,0.21184196406473,1
335,957,55,0.139010290060447,1
335,959,55,0.133102813738308,1
335,960,55,0.157251207340775,1
335,961,55,0.162403233023011,1
335,962,55,0.177406713322528,10
335,963,55,0.194044763774435,10
335,964,55,0.174456749647094,10
335,965,55,0.136963564919598,1
335,966,55,0.160247772075995,1
335,967,55,0.21747125902897,1
335,968,55,0.191136666858551,1
335,969,55,0.129065656877327,1
335,973,55,0.15520667269705,1
335,974,55,0.163491721663847,1
335,975,55,0.152092292191778,1
336,955,55,0.122830053507485,1
336,956,55,0.122937552742696,1
336,973,55,0.116978552630674,1
336,974,55,0.158697229864362,1
336,975,55,0.192822160180644,1
336,976,55,0.202259599064596,1
336,977,55,0.170207149895671,1
337,974,55,0.121543654629171,1
337,975,55,0.174275409460441,1
337,976,55,0.202384033433487,1
337,977,55,0.164050451529763,1
337,978,55,0.134484734778848,1
337,979,55,0.135063579532334,1
338,955,55,0.115651394018238,1
338,976,55,0.118119978285343,1
338,978,55,0.12284801322853,1
338,979,55,0.162379773505424,1
338,980,55,0.164158410062757,1
339,979,55,0.136293991188454,1
339,980,55,0.145740215614636,1
339,981,55,0.142882276372149,1
339,982,55,0.116136742230495,1
340,980,55,0.128313126900256,1
340,981,55,0.168194707212501,1
340,982,55,0.161470387446652,1
341,981,55,0.153207396550358,1
341,982,55,0.150264039696896,1
342,984,55,0.135145888050617,1
342,985,55,0.150643266567295,1
343,984,55,0.120897893721602,1
343,985,55,0.132178094199667,1
346,987,55,0.144452262189975,1
346,988,55,0.119806637517195,1
347,987,55,0.164054714755349,1
347,988,55,0.143539602162383,1
348,987,55,0.13070245285744,1
348,988,55,0.157712342316005,1
348,989,55,0.134297906572518,1
349,988,55,0.140878996090928,1
349,989,55,0.14635926658953,1
350,989,55,0.124283907647134,1
351,953,55,0.121563828401072,1
351,989,55,0.134316031169691,1
351,990,55,0.132436867281972,1
352,953,55,0.125503743677354,1
352,989,55,0.153287302587924,1
352,990,55,0.151900411709823,1
353,957,55,0.124845169539296,1
353,989,55,0.140163504358241,1
353,990,55,0.13911645850977,1
354,956,55,0.114533569203551,1
354,957,55,0.162115229758652,1
354,990,55,0.130467857681565,1
355,990,55,0.160527837732495,1
355,991,55,0.152841030017913,1
356,952,55,0.12972689258716,1
356,953,55,0.122827698134233,1
356,990,55,0.167020471208436,1
356,991,55,0.174261736518715,1
357,953,55,0.143736464258765,1
357,990,55,0.123181239659323,1
358,953,55,0.120760810998349,1
360,990,55,0.127628443449702,1
361,990,55,0.137735538502863,1
363,953,55,0.146734183126879,1
364,990,55,0.116506170748167,1
365,953,55,0.126471943406222,1
365,990,55,0.15063264383393,1
366,990,55,0.151050251511467,1
367,989,55,0.121966208590536,1
367,990,55,0.129663191517566,1
368,989,55,0.125722263430786,1
369,989,55,0.128705378984738,1
370,988,55,0.124685204364902,1
370,989,55,0.154069887127687,1
371,988,55,0.154890251854409,1
372,987,55,0.127200142377602,1
372,988,55,0.17524917964705,1
373,986,55,0.133171826174585,1
373,987,55,0.163662533332065,1
374,985,55,0.158994996150849,1
374,986,55,0.227025736409803,1
375,984,55,0.164252683877159,1
375,985,55,0.219966894757872,1
377,980,55,0.134101150467933,1
378,978,55,0.139227102168272,1
378,979,55,0.15775655267194,1
378,980,55,0.204904800994985,1
379,976,55,0.128347044275082,1
379,977,55,0.190940334721151,1
379,981,55,0.237315019583986,1
380,975,55,0.188385060941514,1
380,976,55,0.21513468165576,1
380,979,55,0.193226777974697,1
381,976,55,0.224811520677021,1
331,961,56,0.242875160789555,10
332,960,56,0.283861057850888,10
332,961,56,0.317746517368664,10
332,962,56,0.232500212690205,10
332,963,56,0.171255620744959,1
332,964,56,0.141824572459713,1
332,965,56,0.115641348351319,1
332,967,56,0.115512509434448,1
332,968,56,0.121936236465908,1
333,956,56,0.129899447231584,1
333,959,56,0.155132737530678,1
333,960,56,0.263826700492339,10
333,961,56,0.342153177648186,10
333,962,56,0.338492244556709,10
333,963,56,0.301060181765096,10
333,964,56,0.236205544567478,1
333,965,56,0.17646756712272,1
333,966,56,0.186944149577884,1
333,967,56,0.238947693660909,1
333,968,56,0.215326550360848,1
333,969,56,0.149530859111088,1
334,955,56,0.17035809399051,1
334,956,56,0.209779952551477,1
334,957,56,0.133942103889108,1
334,959,56,0.134789366978364,1
334,960,56,0.19925842957467,1
334,961,56,0.266412923876503,10
334,962,56,0.322905774046783,10
334,963,56,0.333137491898694,10
334,964,56,0.269865618418793,10
334,965,56,0.19403737967929,1
334,966,56,0.224930961654618,1
334,967,56,0.308794615126829,1
334,968,56,0.252524300621376,1
334,969,56,0.140889124195911,1
334,972,56,0.133093533567696,1
334,973,56,0.157982868710835,1
335,956,56,0.181381547007267,1
335,957,56,0.116469214941847,1
335,960,56,0.119189317741642,1
335,961,56,0.141430612729624,1
335,962,56,0.171504159730485,10
335,963,56,0.181337666403587,10
335,964,56,0.157123593217995,1
335,965,56,0.1246371429737,1
335,966,56,0.147305031388175,1
335,967,56,0.203040405297555,1
335,968,56,0.180333712108757,1
335,969,56,0.116995087350901,1
335,972,56,0.14948662520142,1
335,973,56,0.182865220172283,1
335,974,56,0.159710711643995,1
335,975,56,0.138723499813313,1
336,973,56,0.142611997291509,1
336,974,56,0.157647381121721,1
336,975,56,0.192057335155199,1
336,976,56,0.22875969153655,1
336,977,56,0.167282164953572,1
337,974,56,0.124665336791524,1
337,975,56,0.16890899770483,1
337,976,56,0.217869929505563,1
337,977,56,0.17159795069337,1
337,978,56,0.126177615964682,1
338,957,56,0.117530993650008,1
338,976,56,0.116345663837926,1
338,977,56,0.113823565490541,1
338,978,56,0.127974706871443,1
338,979,56,0.160113174271523,1
339,979,56,0.124595629520138,1
340,981,56,0.12746853715964,1
340,982,56,0.12528903962859,1
341,980,56,0.114382201141527,1
341,981,56,0.138350114268578,1
341,982,56,0.124315658078568,1
342,984,56,0.11376901504603,1
346,987,56,0.122994870750777,1
347,987,56,0.148800222328392,1
347,988,56,0.126430288630265,1
348,987,56,0.13671579143038,1
348,988,56,0.153852615722079,1
348,989,56,0.118955758929997,1
349,988,56,0.154318520328143,1
349,989,56,0.137109009217895,1
350,988,56,0.119067992465444,1
350,989,56,0.122210872987063,1
351,989,56,0.132187162386687,1
351,990,56,0.127987661424328,1
352,989,56,0.151277910113115,1
352,990,56,0.149140715085666,1
353,957,56,0.130279734019947,1
353,989,56,0.141476071433383,1
353,990,56,0.145879382843216,1
354,956,56,0.117916285606531,1
354,957,56,0.165076087035376,1
354,958,56,0.119109117282419,1
354,989,56,0.125033505184506,1
354,990,56,0.157260675941247,1
354,991,56,0.116152217032759,1
355,989,56,0.117545384980576,1
355,990,56,0.185418209239865,1
355,991,56,0.1567172795552,1
356,990,56,0.1737491837454,1
356,991,56,0.172271705212036,1
357,990,56,0.135286091643428,1
357,991,56,0.154124237365472,1
358,990,56,0.118869940905569,1
359,990,56,0.121605377185233,1
360,990,56,0.144956524049444,1
360,991,56,0.187237487762658,1
361,990,56,0.154839811536222,1
361,991,56,0.203290710813019,1
362,990,56,0.115893809033309,1
363,954,56,0.121642533198279,1
364,954,56,0.135611144929037,1
364,990,56,0.132068793103919,1
365,990,56,0.188314753049949,1
365,991,56,0.203597710162654,1
366,989,56,0.132665609355316,1
366,990,56,0.199236972124346,1
366,991,56,0.180199173188617,1
367,989,56,0.156526588536738,1
367,990,56,0.167210326069394,1
368,989,56,0.151603399142776,1
369,989,56,0.150971193408271,1
370,988,56,0.167340896185605,1
370,989,56,0.199259041971715,1
371,987,56,0.120929173078385,1
371,988,56,0.216475383664394,1
371,989,56,0.230313696146864,1
372,987,56,0.148540365774392,1
372,988,56,0.227599081366746,1
373,986,56,0.135500642592931,1
373,987,56,0.18530691785372,1
374,985,56,0.17166100403532,1
374,986,56,0.243054805107467,1
375,984,56,0.148650738564969,1
375,985,56,0.248692602969146,1
376,982,56,0.144599614340605,1
376,984,56,0.225634205446396,1
377,981,56,0.163562677283056,1
378,979,56,0.120203423695187,1
378,980,56,0.159177125387541,1
379,976,56,0.114860118151175,1
379,977,56,0.15728638484029,1
379,978,56,0.180997762489626,1
379,979,56,0.164431798236089,1
379,980,56,0.176497527470483,1
379,981,56,0.227192002207644,1
380,975,56,0.164920420417167,1
380,976,56,0.173618036562742,1
380,977,56,0.193660625950805,1
380,978,56,0.206008175594772,1
380,979,56,0.174196233588584,1
381,976,56,0.195530132808192,1
332,961,57,0.242734003270577,10
332,962,57,0.195413200303108,1
332,963,57,0.154811441065405,1
333,960,57,0.222270190707035,1
333,961,57,0.302968740710997,10
333,962,57,0.307858801780172,10
333,963,57,0.250935672024261,1
333,964,57,0.187389220907537,1
333,965,57,0.148342019792861,1
333,966,57,0.164968128502381,1
333,967,57,0.222262677066362,1
333,968,57,0.219773141754182,1
334,956,57,0.161351865064623,1
334,960,57,0.154582922752519,1
334,961,57,0.240083972825022,1
334,962,57,0.293692197373872,10
334,963,57,0.270924900431307,10
334,964,57,0.211550368856162,1
334,965,57,0.166927528179921,1
334,966,57,0.203956221525304,1
334,967,57,0.288265016988365,1
334,968,57,0.258365343640949,1
334,969,57,0.144252467653895,1
334,971,57,0.116698981602556,1
334,972,57,0.151896972864875,1
335,961,57,0.126486417174854,1
335,962,57,0.158332794737983,1
335,963,57,0.161274267292844,1
335,964,57,0.142367862853964,1
335,965,57,0.12332318622834,1
335,966,57,0.143189994110625,1
335,967,57,0.187961164417395,1
335,968,57,0.176284695943454,1
335,969,57,0.121573473654538,1
335,971,57,0.120062949234452,1
335,972,57,0.177353988292287,1
335,973,57,0.190882310101094,1
335,974,57,0.149732961912955,1
336,969,57,0.121131087450392,1
336,972,57,0.145094442930201,1
336,973,57,0.171092640692804,1
336,974,57,0.155786271169977,1
336,975,57,0.177083626773584,1
336,976,57,0.224524094479109,1
336,977,57,0.161654035899092,1
337,973,57,0.130455809947382,1
337,974,57,0.132727308357646,1
337,975,57,0.151884171411252,1
337,976,57,0.203693738730128,1
337,977,57,0.178909888978069,1
337,978,57,0.129588172879498,1
338,957,57,0.144131248369493,1
338,958,57,0.143822600258582,1
338,976,57,0.11650867922068,1
338,977,57,0.137363389529085,1
338,978,57,0.147431915345247,1
338,979,57,0.143056997959964,1
339,957,57,0.138232852011239,1
339,958,57,0.126868635369283,1
339,978,57,0.114811503247259,1
339,979,57,0.114390421394176,1
347,987,57,0.116484948835169,1
348,987,57,0.12830011346304,1
348,988,57,0.126582433965462,1
349,987,57,0.128516254289488,1
349,988,57,0.144297361068073,1
350,988,57,0.123794037118233,1
351,989,57,0.117931006689354,1
352,989,57,0.130146843861082,1
353,989,57,0.125952842695267,1
353,990,57,0.142557258417138,1
354,957,57,0.132769763960509,1
354,958,57,0.114203746287107,1
354,989,57,0.130680147472746,1
354,990,57,0.172682529414608,1
354,991,57,0.117604104435743,1
355,989,57,0.123749190811519,1
355,990,57,0.182133888554478,1
355,991,57,0.136867018170009,1
356,990,57,0.148217338109779,1
356,991,57,0.142837253412441,1
357,990,57,0.131415812977334,1
357,991,57,0.164607662179932,1
358,990,57,0.128744171982195,1
358,991,57,0.180106913218345,1
359,990,57,0.123976625652709,1
359,991,57,0.173119816235663,1
360,990,57,0.145331452363659,1
360,991,57,0.212101337767214,1
361,990,57,0.155275367157938,1
361,991,57,0.227878546403067,1
362,990,57,0.119746422400014,1
364,954,57,0.150331792008482,1
364,990,57,0.138332178101266,1
365,989,57,0.117475983907713,1
365,990,57,0.210531999677031,1
365,991,57,0.203729328419962,1
366,989,57,0.156313709902244,1
366,990,57,0.233632464166058,1
366,991,57,0.184460184723445,1
367,989,57,0.175847821312717,1
367,990,57,0.191714687231399,1
368,989,57,0.156869613320258,1
369,988,57,0.120190751787092,1
369,989,57,0.15525442788973,1
370,988,57,0.210686135302626,1
370,989,57,0.233039640272323,1
371,987,57,0.143596531533878,1
371,988,57,0.280943292127806,1
371,989,57,0.275489613793217,1
371,990,57,0.144661749086987,1
372,987,57,0.169438073421507,1
372,988,57,0.271754274460716,1
372,989,57,0.224921540161611,1
373,986,57,0.130984603019268,1
373,987,57,0.200546677420987,1
373,988,57,0.264455914902814,1
374,985,57,0.163056542901852,1
374,986,57,0.222940129521033,1
375,984,57,0.137525392101341,1
375,985,57,0.257065271820908,1
376,982,57,0.126006474544209,1
376,984,57,0.191729537859751,1
377,981,57,0.142446061245923,1
378,980,57,0.130992575957725,1
379,977,57,0.123385191429192,1
379,978,57,0.137930386755114,1
379,979,57,0.138030678548174,1
380,976,57,0.128494196218985,1
333,961,58,0.231640360130917,1
333,962,58,0.244470525754169,1
333,963,58,0.196561609639469,1
334,962,58,0.236570391884175,1
334,963,58,0.205324151648728,1
334,964,58,0.165225311707741,1
334,965,58,0.140814482417563,1
334,966,58,0.164988266943684,1
334,967,58,0.241465799650632,1
334,968,58,0.251879116780254,1
335,962,58,0.137051938524004,1
335,963,58,0.135687447245528,1
335,964,58,0.129560120384069,1
335,965,58,0.125884642862762,1
335,966,58,0.133086773646464,1
335,967,58,0.161392259715891,1
335,968,58,0.172828845201007,1
335,969,58,0.133524873071291,1
335,971,58,0.13875986677632,1
335,972,58,0.19020820227644,1
336,969,58,0.132090050347516,1
336,971,58,0.113873204981822,1
336,972,58,0.166739486956367,1
336,973,58,0.183193512096114,1
336,974,58,0.145230430404891,1
337,969,58,0.127365371811213,1
337,972,58,0.123341299048646,1
337,973,58,0.161562553201993,1
337,974,58,0.136136298949249,1
337,975,58,0.130414378931883,1
337,976,58,0.17063712328278,1
337,977,58,0.177717693252958,1
338,957,58,0.161905165795194,1
338,973,58,0.122792944601904,1
338,976,58,0.114508896668739,1
338,977,58,0.168833790636901,1
338,978,58,0.178617328066467,1
339,978,58,0.127690719518479,1
348,987,58,0.119399864556617,1
349,987,58,0.138368486179942,1
349,988,58,0.122571197987117,1
350,988,58,0.116188583995766,1
354,989,58,0.123525712997392,1
354,990,58,0.164512893737147,1
355,989,58,0.11400580071903,1
355,990,58,0.156772041983303,1
356,990,58,0.117024329309822,1
357,990,58,0.117504519254658,1
358,990,58,0.129037651489364,1
358,991,58,0.195673410163096,1
359,990,58,0.124390488286776,1
359,991,58,0.186377729418301,1
360,990,58,0.137294765729395,1
360,991,58,0.218159263555809,1
361,990,58,0.144605067029683,1
361,991,58,0.235430532552719,1
362,990,58,0.118869175409263,1
364,990,58,0.140495188019554,1
365,989,58,0.141141420001773,1
365,990,58,0.211819022729258,1
365,991,58,0.183843783543459,1
366,989,58,0.171552656865739,1
366,990,58,0.237421953529616,1
366,991,58,0.174754150850728,1
367,989,58,0.17879174345576,1
367,990,58,0.198164971096273,1
368,989,58,0.151383725256451,1
369,988,58,0.126939696980289,1
369,989,58,0.149702589374874,1
370,988,58,0.224313029482019,1
370,989,58,0.231530858828443,1
371,987,58,0.150526475384607,1
371,988,58,0.291523581667244,1
371,989,58,0.271011083538588,1
371,990,58,0.127085577022637,1
372,987,58,0.173171175149418,1
372,988,58,0.26973096172999,1
372,989,58,0.209074400493912,1
373,986,58,0.119453920372744,1
373,987,58,0.196413892405985,1
373,988,58,0.247022148705265,1
374,985,58,0.13679779375014,1
374,986,58,0.184938737683871,1
375,984,58,0.121203491624151,1
375,985,58,0.228089187432972,1
376,983,58,0.127803694996499,1
376,984,58,0.164221333859178,1
377,981,58,0.133910400565139,1
377,982,58,0.192136605241987,1
378,981,58,0.171730805521636,1
336,972,59,0.182999405786436,1
337,973,59,0.179506010394356,1
337,974,59,0.140691484826356,1
338,970,59,0.116360243598355,1
338,973,59,0.140247909158718,1
338,974,59,0.124338940943161,1
338,977,59,0.17342463686504,1
339,978,59,0.123647980422891,1
348,986,59,0.116317776218625,1
348,987,59,0.122698164382253,1
349,986,59,0.120083382097411,1
349,987,59,0.144906884558164,1
355,990,59,0.123648310175146,1
358,990,59,0.117537600471979,1
359,990,59,0.118556770478015,1
360,990,59,0.126012221654944,1
360,991,59,0.20007901806185,1
361,990,59,0.128484126998334,1
361,991,59,0.212560352906516,1
362,990,59,0.117403226427966,1
362,991,59,0.169702699606342,1
363,990,59,0.118910523986697,1
364,989,59,0.131330018506639,1
364,990,59,0.148474403546476,1
364,991,59,0.139823812427873,1
365,989,59,0.172617191360604,1
365,990,59,0.195159467719562,1
366,989,59,0.177694269065969,1
366,990,59,0.210062503126758,1
367,989,59,0.17127686621169,1
367,990,59,0.194069459862979,1
368,989,59,0.152456409342767,1
369,988,59,0.136098919175744,1
369,989,59,0.154476766080063,1
370,987,59,0.120859112501012,1
370,988,59,0.215670269979477,1
370,989,59,0.213503444356521,1
371,987,59,0.151483604859192,1
371,988,59,0.260816745460183,1
371,989,59,0.234453146868169,1
372,987,59,0.166228264968939,1
372,988,59,0.235353935814571,1
374,985,59,0.113926907491962,1
374,986,59,0.15260032264845,1
375,985,59,0.187225981764323,1
377,981,59,0.135414871675968,1
377,982,59,0.169658524581005,1
378,981,59,0.168234830995845,1
349,986,60,0.118295630245593,1
349,987,60,0.13676505406194,1
351,958,60,0.12549065957894,1
351,959,60,0.12254292173123,1
360,990,60,0.114576366335536,1
362,990,60,0.116745688654139,1
363,990,60,0.137984489678707,1
363,991,60,0.158663571580594,1
364,989,60,0.144048774975083,1
364,990,60,0.153709703450028,1
365,988,60,0.12339690941112,1
365,989,60,0.1773998120789,1
365,990,60,0.162829685127109,1
366,988,60,0.122432678486181,1
366,989,60,0.163211184932696,1
366,990,60,0.164879754897975,1
367,989,60,0.150938771695461,1
369,988,60,0.139013846674058,1
370,987,60,0.121481802527579,1
370,988,60,0.189331885658123,1
370,989,60,0.181924966947047,1
371,987,60,0.142886516044002,1
371,988,60,0.206115227309064,1
372,987,60,0.147247277636042,1
377,981,60,0.130405864257578,1
349,987,61,0.126516424630082,1
351,958,61,0.126628010437884,1
351,959,61,0.118461613398644,1
363,990,61,0.160881237935189,1
364,989,61,0.142397540556936,1
365,988,61,0.141400817257989,1
365,989,61,0.160904532576649,1
365,990,61,0.137090637306531,1
366,988,61,0.134170162904209,1
366,989,61,0.143736052068446,1
367,989,61,0.135453511574163,1
369,988,61,0.130496075053121,1
370,988,61,0.155385103997737,1
370,989,61,0.148377880350619,1
371,987,61,0.125358393593988,1
371,988,61,0.157403176022979,1
372,987,61,0.123648651704268,1
377,981,61,0.116232582368109,1
364,989,62,0.131469185735219,1
365,988,62,0.141093264395641,1
365,989,62,0.135646546189011,1
366,988,62,0.130603621395796,1
366,989,62,0.125474442834102,1
367,989,62,0.125589703024177,1
368,989,62,0.140597069689559,1
369,988,62,0.115487401155584,1
369,989,62,0.143813237649907,1
370,988,62,0.124470323663144,1
365,988,63,0.120637518985486,1
373,969,63,0.119573090482417,1
369,989,64,0.139000338608459,1
374,970,64,0.113950131472224,1
368,989,65,0.118113253694709,1
369,989,65,0.148814743204489,1
369,990,65,0.250689841717975,1
370,989,65,0.129767299015294,1
369,989,66,0.148817392999397,1
370,989,66,0.132162796050397,1
