x,y,z,signal,mito.p
1018,282,38,0.264474804996293,1
1019,281,38,0.297334570124125,2
1015,277,39,0.228916889147373,1
1015,278,39,0.217522535504661,1
1016,277,39,0.224390709691862,1
1017,281,39,0.221682242435931,1
1017,282,39,0.24651557858001,1
1017,283,39,0.253227332429561,1
1018,281,39,0.287940305231878,2
1018,282,39,0.277208635853548,2
1018,283,39,0.241699052263754,1
1019,280,39,0.283072314010071,2
1019,281,39,0.311336298402803,2
1019,282,39,0.270408743936916,2
1019,283,39,0.226706182920736,1
1020,281,39,0.244978744640701,2
1014,277,40,0.185076350366105,1
1014,278,40,0.165954982787403,1
1015,276,40,0.252437434455851,1
1015,277,40,0.343441967230351,3
1015,278,40,0.289200689012627,1
1015,279,40,0.169396689513473,1
1016,276,40,0.250075937233637,1
1016,277,40,0.310069060485891,3
1016,278,40,0.25786388467565,1
1016,281,40,0.195885417309487,1
1016,282,40,0.196953838170218,1
1016,283,40,0.1992585237896,1
1017,277,40,0.184446040707068,1
1017,280,40,0.23303587167512,1
1017,281,40,0.256805851010959,2
1017,282,40,0.252642846557137,2
1017,283,40,0.237748855783228,1
1017,284,40,0.211693952409589,1
1018,280,40,0.273297938982454,2
1018,281,40,0.327604790791508,2
1018,282,40,0.32774140244011,2
1018,283,40,0.279709688940929,2
1018,284,40,0.230325331690727,1
1019,280,40,0.254560520797522,2
1019,281,40,0.320259017570048,2
1019,282,40,0.328942807674635,2
1019,283,40,0.274281801943447,2
1019,284,40,0.221358779027267,1
1020,281,40,0.226017848641642,2
1020,282,40,0.24148954181301,2
1020,283,40,0.220377294993258,2
1014,276,41,0.174766045485649,1
1014,277,41,0.19262883114414,3
1014,278,41,0.168974147328974,1
1015,275,41,0.178941580525171,1
1015,276,41,0.283356207148106,3
1015,277,41,0.37513831929421,3
1015,278,41,0.293975360346198,3
1015,279,41,0.174238277001127,1
1015,281,41,0.197679269578027,1
1015,282,41,0.21066708033302,1
1015,283,41,0.19104978891616,1
1016,275,41,0.183682593574975,1
1016,276,41,0.276754307907016,3
1016,277,41,0.342741832531266,3
1016,278,41,0.263320931193989,3
1016,279,41,0.188676314620961,1
1016,280,41,0.208107778865123,1
1016,281,41,0.245672590493205,2
1016,282,41,0.242558457302123,2
1016,283,41,0.221516000191822,1
1016,284,41,0.19847630433269,1
1017,276,41,0.188488673810859,1
1017,277,41,0.206149969064528,3
1017,278,41,0.192835409155185,1
1017,279,41,0.216970530229378,1
1017,280,41,0.279733501764504,2
1017,281,41,0.30267921823089,2
1017,282,41,0.292600858731402,2
1017,283,41,0.277056784940007,2
1017,284,41,0.239517270020649,2
1017,285,41,0.195500702419411,1
1018,279,41,0.225465890473825,1
1018,280,41,0.293416783579544,2
1018,281,41,0.353211348866674,2
1018,282,41,0.380296209855843,2
1018,283,41,0.346368895355383,2
1018,284,41,0.269657262100942,2
1018,285,41,0.200551953457071,1
1019,280,41,0.22946557334637,2
1019,281,41,0.315531877668697,2
1019,282,41,0.376978077787426,2
1019,283,41,0.33891896752873,2
1019,284,41,0.252633307295467,2
1019,285,41,0.18550451011581,1
1020,281,41,0.22381317217053,2
1020,282,41,0.292416833419242,2
1020,283,41,0.30017489117469,2
1020,284,41,0.240099895148204,2
1021,282,41,0.214360376252976,1
1021,283,41,0.239243928954782,2
1021,284,41,0.204512984654555,1
1013,274,42,0.228509762880806,1
1013,275,42,0.234795688800172,1
1014,274,42,0.242668547447911,1
1014,275,42,0.229905085995149,1
1014,276,42,0.192426551689278,1
1014,277,42,0.184750166501335,1
1014,278,42,0.159991024614687,1
1014,281,42,0.17125955421829,1
1014,282,42,0.19884791157062,1
1014,283,42,0.185958920500406,1
1015,275,42,0.189374859443101,1
1015,276,42,0.261622447988412,1
1015,277,42,0.328122596047175,3
1015,278,42,0.25456200468267,1
1015,279,42,0.169456092026883,1
1015,280,42,0.170803801270941,1
1015,281,42,0.247048905745405,1
1015,282,42,0.28412808651644,2
1015,283,42,0.245898871201501,2
1015,284,42,0.194142182012128,1
1016,275,42,0.168038840387566,1
1016,276,42,0.255102727720077,1
1016,277,42,0.320088747637678,3
1016,278,42,0.25151926285485,1
1016,279,42,0.190830703873148,1
1016,280,42,0.223604933621342,1
1016,281,42,0.285864090817917,2
1016,282,42,0.294645252052731,2
1016,283,42,0.266110376182315,2
1016,284,42,0.224128768632533,2
1016,285,42,0.186486323902073,1
1017,276,42,0.185283799865254,1
1017,277,42,0.212372323459829,1
1017,278,42,0.202327692905305,1
1017,279,42,0.223387933083657,1
1017,280,42,0.303338463650325,2
1017,281,42,0.346152554322209,2
1017,282,42,0.346573176877508,2
1017,283,42,0.348325339039492,2
1017,284,42,0.299163658776512,2
1017,285,42,0.222506905718837,2
1018,279,42,0.215148484143015,1
1018,280,42,0.290803426295519,2
1018,281,42,0.362149519282452,2
1018,282,42,0.413261448597889,2
1018,283,42,0.41138209628031,2
1018,284,42,0.321274018565429,2
1018,285,42,0.218407425681614,2
1019,280,42,0.208949377281709,2
1019,281,42,0.304127207491142,2
1019,282,42,0.40199857189009,2
1019,283,42,0.398434609515388,2
1019,284,42,0.292406304900806,2
1019,285,42,0.198736808614335,2
1020,281,42,0.232701620656963,2
1020,282,42,0.350024034228661,2
1020,283,42,0.397076548405888,2
1020,284,42,0.307981705156449,2
1020,285,42,0.203885890080006,2
1021,281,42,0.170541471575026,1
1021,282,42,0.24499716365953,2
1021,283,42,0.294008147141863,2
1021,284,42,0.248598081840553,2
1021,285,42,0.174608800767362,1
1022,282,42,0.147908548676473,1
1022,283,42,0.161733235324682,1
1022,284,42,0.149388841880873,1
1012,274,43,0.128040739760557,1
1012,275,43,0.149149535958494,1
1012,276,43,0.121072061796703,1
1013,273,43,0.156426379181741,1
1013,274,43,0.263961451396072,1
1013,275,43,0.282856962233663,1
1013,276,43,0.19396346806665,1
1013,277,43,0.134254025968838,1
1013,278,43,0.113780038192848,1
1013,282,43,0.15350502151445,1
1013,283,43,0.162386851402045,1
1014,272,43,0.135341949320093,1
1014,273,43,0.220318905290347,1
1014,274,43,0.309097327697145,1
1014,275,43,0.292851493999121,1
1014,276,43,0.218002136606184,1
1014,277,43,0.184705002219233,1
1014,278,43,0.159639461603129,1
1014,279,43,0.144758908233622,1
1014,280,43,0.148747850604139,1
1014,281,43,0.206690503672074,1
1014,282,43,0.256887582462795,2
1014,283,43,0.24141994053342,2
1014,284,43,0.194890154341956,1
1015,271,43,0.145322549052768,1
1015,272,43,0.164501399515679,1
1015,273,43,0.191351441568513,1
1015,274,43,0.200514715005961,1
1015,275,43,0.193602801537475,1
1015,276,43,0.21891081605298,1
1015,277,43,0.256619164127025,1
1015,278,43,0.219085325657203,1
1015,279,43,0.178370956024333,1
1015,280,43,0.193018421656847,1
1015,281,43,0.287852072949867,2
1015,282,43,0.348224128650864,2
1015,283,43,0.301405220392746,2
1015,284,43,0.221860120223904,2
1015,285,43,0.189588103160449,1
1016,272,43,0.135817534510222,1
1016,276,43,0.2025491922059,1
1016,277,43,0.264859413894573,1
1016,278,43,0.237246360453698,1
1016,279,43,0.197715754309697,1
1016,280,43,0.234812247074132,2
1016,281,43,0.327384092317818,2
1016,282,43,0.359133157635051,2
1016,283,43,0.317381458068373,2
1016,284,43,0.250812957077845,2
1016,285,43,0.19982838279413,1
1017,276,43,0.1687712790308,1
1017,277,43,0.201895741004665,1
1017,278,43,0.199712828182399,1
1017,279,43,0.205957228871336,1
1017,280,43,0.294405969684085,2
1017,281,43,0.396150368535831,2
1017,282,43,0.426285861853213,2
1017,283,43,0.41683073411614,2
1017,284,43,0.345545056453115,2
1017,285,43,0.237528628384189,2
1017,286,43,0.166316944771868,1
1018,275,43,0.150744900923108,1
1018,276,43,0.166899381469563,1
1018,277,43,0.17116483288297,1
1018,278,43,0.166808063648592,1
1018,279,43,0.182225806995628,1
1018,280,43,0.263163168293586,2
1018,281,43,0.365723821745729,2
1018,282,43,0.438136498402256,2
1018,283,43,0.455346739678213,2
1018,284,43,0.362930207746747,2
1018,285,43,0.230055900544459,2
1018,286,43,0.163894537597363,1
1019,273,43,0.19707140662608,1
1019,274,43,0.231167236305836,1
1019,275,43,0.193256750099326,1
1019,276,43,0.165326722303095,1
1019,280,43,0.191273714251205,2
1019,281,43,0.285937225157384,2
1019,282,43,0.402569844118572,2
1019,283,43,0.442745586996229,2
1019,284,43,0.337865997916531,2
1019,285,43,0.214330392351481,2
1019,286,43,0.172396822639169,1
1020,272,43,0.168782679037338,1
1020,273,43,0.207069012153632,1
1020,274,43,0.211084169828441,1
1020,275,43,0.154638168032139,1
1020,280,43,0.145412206335596,1
1020,281,43,0.233376411539859,2
1020,282,43,0.376370603472065,2
1020,283,43,0.454290354774799,2
1020,284,43,0.353430634116413,2
1020,285,43,0.222400113095602,2
1020,286,43,0.174484919911185,1
1021,269,43,0.148855184963222,1
1021,270,43,0.158620020729169,1
1021,271,43,0.157067076036819,1
1021,272,43,0.145988365963575,1
1021,273,43,0.135000502636652,1
1021,281,43,0.166848352308063,1
1021,282,43,0.25456779890087,2
1021,283,43,0.311265213238064,2
1021,284,43,0.264685987762046,2
1021,285,43,0.187653234695326,1
1021,292,43,0.148691992927474,1
1021,293,43,0.163304045523147,1
1022,269,43,0.208636889912398,1
1022,270,43,0.188705839224671,1
1022,282,43,0.141134883840999,1
1022,283,43,0.161693005549542,2
1022,284,43,0.155679184125086,1
1022,291,43,0.148810244441578,1
1022,292,43,0.169274410311108,1
1022,293,43,0.171685158388016,1
1023,292,43,0.156878775722207,1
1012,274,44,0.11611793457508,1
1012,275,44,0.140831429328109,1
1012,276,44,0.125308212366859,1
1012,277,44,0.115063775499389,1
1013,273,44,0.154722961469203,1
1013,274,44,0.262316152518521,1
1013,275,44,0.301045107376285,1
1013,276,44,0.225305819307635,1
1013,277,44,0.169168253638651,1
1013,278,44,0.140124923344378,1
1013,279,44,0.120800216392851,1
1013,280,44,0.1153858610147,1
1013,282,44,0.183483858956858,1
1013,283,44,0.206828434329697,1
1013,284,44,0.182523302414192,1
1014,272,44,0.144557806465387,1
1014,273,44,0.23490700374005,1
1014,274,44,0.327728047473773,1
1014,275,44,0.322209243068772,1
1014,276,44,0.234293947190082,1
1014,277,44,0.183847281272738,1
1014,278,44,0.156798221956997,1
1014,279,44,0.144541024430968,1
1014,280,44,0.155643924187507,1
1014,281,44,0.221864595433082,1
1014,282,44,0.301212857059275,2
1014,283,44,0.304751428510323,2
1014,284,44,0.237106027315358,1
1014,285,44,0.196984481576223,1
1015,270,44,0.116064691362724,1
1015,271,44,0.141352473221997,1
1015,272,44,0.169506838543592,1
1015,273,44,0.197415408889499,1
1015,274,44,0.200933500370123,1
1015,275,44,0.18455299820643,1
1015,276,44,0.174422926487199,1
1015,277,44,0.18633684013865,1
1015,278,44,0.179599695365445,1
1015,279,44,0.172662944486019,1
1015,280,44,0.198106322302304,1
1015,281,44,0.29341534680186,2
1015,282,44,0.373130057398562,2
1015,283,44,0.338169746851078,2
1015,284,44,0.253552845012954,2
1015,285,44,0.205803116799474,1
1016,268,44,0.116549014987617,1
1016,269,44,0.114823068129925,1
1016,270,44,0.11911843278363,1
1016,271,44,0.12515619657719,1
1016,272,44,0.125300227651536,1
1016,273,44,0.117773879739729,1
1016,276,44,0.145628370715776,1
1016,277,44,0.192492325487334,1
1016,278,44,0.198086843365512,1
1016,279,44,0.183517941207811,1
1016,280,44,0.219006773959257,2
1016,281,44,0.330026962428688,2
1016,282,44,0.393717786148879,2
1016,283,44,0.345827630582129,2
1016,284,44,0.276208591478316,2
1016,285,44,0.212506485520249,2
1017,276,44,0.136603440126271,1
1017,277,44,0.16639714523109,1
1017,278,44,0.170350297705047,1
1017,279,44,0.168116179068288,1
1017,280,44,0.24327993168287,2
1017,281,44,0.392231027444903,2
1017,282,44,0.466867812401869,2
1017,283,44,0.437334446702567,2
1017,284,44,0.362721898536362,2
1017,285,44,0.243154578718411,2
1017,286,44,0.16330529387097,1
1018,275,44,0.119792811476208,1
1018,276,44,0.138194918725019,1
1018,277,44,0.14006623921981,1
1018,278,44,0.136222399618467,1
1018,279,44,0.143470907701496,1
1018,280,44,0.210724292349305,2
1018,281,44,0.32939407363594,2
1018,282,44,0.421851353524661,2
1018,283,44,0.462176851033665,2
1018,284,44,0.397929758812605,2
1018,285,44,0.245768642614412,2
1018,286,44,0.166725119179531,1
1018,289,44,0.187186682361618,1
1019,273,44,0.150604014272054,1
1019,274,44,0.172596228538663,1
1019,275,44,0.14510420595233,1
1019,276,44,0.128493513160742,1
1019,277,44,0.119919177251164,1
1019,278,44,0.117102916338367,1
1019,279,44,0.121609852394411,1
1019,280,44,0.162141221302486,1
1019,281,44,0.244556120018138,2
1019,282,44,0.365442755055597,2
1019,283,44,0.46583177792335,2
1019,284,44,0.398395321889548,2
1019,285,44,0.243433784663675,2
1019,286,44,0.183058608093119,1
1019,288,44,0.246335156988925,1
1019,289,44,0.209110602580792,1
1020,272,44,0.128453707352788,1
1020,273,44,0.164546292929857,1
1020,274,44,0.168054432958493,1
1020,275,44,0.120289971885323,1
1020,280,44,0.126823671293907,1
1020,281,44,0.20681620994252,2
1020,282,44,0.341412978050088,2
1020,283,44,0.439233489940531,2
1020,284,44,0.359678567865228,2
1020,285,44,0.22867605223238,2
1020,286,44,0.179004751635783,1
1020,292,44,0.144476133897882,1
1020,293,44,0.152454901903886,1
1021,269,44,0.132153021251402,1
1021,270,44,0.137941139034009,1
1021,271,44,0.121236513957141,1
1021,272,44,0.120859136054744,1
1021,273,44,0.118192441343433,1
1021,281,44,0.148025575396487,1
1021,282,44,0.232041032674774,2
1021,283,44,0.287274535428535,2
1021,284,44,0.251370261942944,2
1021,285,44,0.187554426787415,1
1021,291,44,0.149183841969906,1
1021,292,44,0.171425772908666,1
1021,293,44,0.176092002857727,1
1021,294,44,0.192919919947458,1
1022,268,44,0.113964829001315,1
1022,269,44,0.183027740926655,1
1022,270,44,0.165221507779939,1
1022,282,44,0.135142001684751,1
1022,283,44,0.164164439818282,1
1022,284,44,0.160525729673435,1
1022,290,44,0.129784399025102,1
1022,291,44,0.170777903942037,1
1022,292,44,0.201303812152765,1
1022,293,44,0.189111611151618,1
1022,294,44,0.185448263802558,1
1023,269,44,0.136825799138103,1
1023,270,44,0.115640406202018,1
1023,291,44,0.157685055316883,1
1023,292,44,0.175330074941382,1
1023,293,44,0.179988732365438,1
1023,294,44,0.189073512989271,1
1024,292,44,0.1422811851183,1
1012,275,45,0.125965231958571,1
1012,276,45,0.123180179741359,1
1012,277,45,0.124840388131595,1
1012,278,45,0.126221060824311,1
1012,283,45,0.140082255757922,1
1013,273,45,0.14718391809557,1
1013,274,45,0.226232140500087,1
1013,275,45,0.26682388940147,1
1013,276,45,0.222114170782838,1
1013,277,45,0.183238134642368,1
1013,278,45,0.157728806375034,1
1013,279,45,0.13488400587562,1
1013,280,45,0.139875842623004,1
1013,281,45,0.181460923085852,1
1013,282,45,0.232760999616639,2
1013,283,45,0.259695941098333,2
1013,284,45,0.229166629373257,1
1013,286,45,0.192431639295502,1
1013,287,45,0.217552118992703,1
1013,288,45,0.20994117785056,1
1014,272,45,0.151468377371119,1
1014,273,45,0.220088055157942,1
1014,274,45,0.284066705489499,1
1014,275,45,0.285471826956569,1
1014,276,45,0.218072468051482,1
1014,277,45,0.172644996541841,1
1014,278,45,0.15188209868279,1
1014,279,45,0.147194670374464,1
1014,280,45,0.176565444658197,1
1014,281,45,0.253556472287762,2
1014,282,45,0.341122937387867,2
1014,283,45,0.359487711970638,2
1014,284,45,0.282415141319098,2
1014,285,45,0.216843128090191,1
1015,269,45,0.115114474908633,1
1015,270,45,0.122013139402577,1
1015,271,45,0.132426032565014,1
1015,272,45,0.156192007766325,1
1015,273,45,0.175408426432602,1
1015,274,45,0.173993471282206,1
1015,275,45,0.159248210552279,1
1015,276,45,0.141749141631326,1
1015,277,45,0.143019476864064,1
1015,278,45,0.151234229716162,1
1015,279,45,0.163821085282507,1
1015,280,45,0.197860374227355,1
1015,281,45,0.282594738529544,2
1015,282,45,0.365793399471586,2
1015,283,45,0.355809231348435,2
1015,284,45,0.285766696133956,2
1015,285,45,0.220624397201101,1
1015,286,45,0.179501099441126,1
1016,277,45,0.134683858033552,1
1016,278,45,0.15083832680314,1
1016,279,45,0.155436674895085,1
1016,280,45,0.185986113284597,2
1016,281,45,0.294728161191193,2
1016,282,45,0.389752303295949,2
1016,283,45,0.360516750990599,2
1016,284,45,0.308814518030806,2
1016,285,45,0.231796756914834,2
1016,286,45,0.167481205770212,1
1017,277,45,0.126878987234725,1
1017,278,45,0.130506238488702,1
1017,279,45,0.127981431462077,1
1017,280,45,0.177321625463808,2
1017,281,45,0.328082837346685,2
1017,282,45,0.444524883058073,2
1017,283,45,0.417264499654184,2
1017,284,45,0.36431589738449,2
1017,285,45,0.254058331666514,2
1017,286,45,0.171616416819664,1
1017,289,45,0.181425062528094,1
1017,290,45,0.190314370725763,1
1017,291,45,0.183712966113057,1
1018,280,45,0.155713961211148,1
1018,281,45,0.266432685458086,2
1018,282,45,0.376530603977057,2
1018,283,45,0.443501379165254,2
1018,284,45,0.43577966481908,2
1018,285,45,0.285109735426576,2
1018,286,45,0.186586509703337,2
1018,288,45,0.229310260034149,1
1018,289,45,0.231979745862763,1
1018,290,45,0.209714614497473,1
1018,291,45,0.188410769840557,1
1019,280,45,0.132257953129768,1
1019,281,45,0.20117690464196,2
1019,282,45,0.313722691920288,2
1019,283,45,0.45660205940647,2
1019,284,45,0.459530918937568,2
1019,285,45,0.293522916698268,2
1019,286,45,0.205479205869892,2
1019,287,45,0.241047179162597,1
1019,288,45,0.287446948750564,1
1019,289,45,0.237647880931925,1
1019,290,45,0.180840317564612,1
1020,273,45,0.117077289877388,1
1020,274,45,0.116263802840561,1
1020,281,45,0.169770911215713,1
1020,282,45,0.275958026871794,2
1020,283,45,0.377335411463451,2
1020,284,45,0.347196856160841,2
1020,285,45,0.237078021927394,2
1020,286,45,0.187725674199684,1
1020,288,45,0.21396083428828,1
1020,289,45,0.1703372253835,1
1020,291,45,0.139535785609781,1
1020,292,45,0.155083510229716,1
1020,293,45,0.166660793936026,1
1021,270,45,0.11443986067873,1
1021,281,45,0.123991641157189,1
1021,282,45,0.194968847362298,1
1021,283,45,0.247777964428023,2
1021,284,45,0.229468046488285,2
1021,285,45,0.180235151515037,1
1021,290,45,0.135393543771173,1
1021,291,45,0.167243395509848,1
1021,292,45,0.201754065303571,1
1021,293,45,0.201383211785082,1
1021,294,45,0.204806157963201,1
1022,269,45,0.136861377051071,1
1022,270,45,0.129359513244217,1
1022,282,45,0.132378454025328,1
1022,283,45,0.173411658758422,1
1022,284,45,0.167991697591932,1
1022,290,45,0.137500849112057,1
1022,291,45,0.188689893347757,1
1022,292,45,0.231989520661758,1
1022,293,45,0.214909295989299,1
1022,294,45,0.201409474196839,1
1023,290,45,0.144147488668064,1
1023,291,45,0.168094733394831,1
1023,292,45,0.197874765557923,1
1023,293,45,0.207024943120091,1
1023,294,45,0.221173717350876,1
1023,295,45,0.205358233899681,1
1024,291,45,0.143222027186849,1
1024,292,45,0.162174066982481,1
1024,293,45,0.202904830013183,1
1024,294,45,0.250895395141656,1
1012,275,46,0.114008509398269,1
1012,276,46,0.118182065924259,1
1012,277,46,0.127906589477003,1
1012,278,46,0.134545939152795,1
1012,279,46,0.118288540572105,1
1012,281,46,0.115757432922032,1
1012,282,46,0.133114437505305,1
1012,283,46,0.149382859232813,1
1012,284,46,0.169226843548289,1
1012,286,46,0.210629205931131,1
1012,287,46,0.224361173311285,1
1012,288,46,0.205047536614042,1
1013,273,46,0.13826111649026,1
1013,274,46,0.180776510503222,1
1013,275,46,0.207523363653896,1
1013,276,46,0.186351043039359,1
1013,277,46,0.164940040676354,1
1013,278,46,0.147962863583659,1
1013,279,46,0.129925532990347,1
1013,280,46,0.14656986051197,1
1013,281,46,0.205973598715436,1
1013,282,46,0.251114515515268,2
1013,283,46,0.267614870846876,2
1013,284,46,0.249057615161971,1
1013,285,46,0.228656667510518,1
1013,286,46,0.232574995790948,1
1013,287,46,0.257138123515585,1
1013,288,46,0.237252767068942,1
1013,289,46,0.165808784769667,1
1014,269,46,0.119248249180401,1
1014,270,46,0.127844572499284,1
1014,271,46,0.124120904041246,1
1014,272,46,0.147608179702543,1
1014,273,46,0.181930337198061,1
1014,274,46,0.209591852443591,1
1014,275,46,0.211920939729861,1
1014,276,46,0.173912740864002,1
1014,277,46,0.145662900487647,1
1014,278,46,0.134731401242638,1
1014,279,46,0.135980220140721,1
1014,280,46,0.175764452876471,1
1014,281,46,0.255006086755557,2
1014,282,46,0.324725912280812,2
1014,283,46,0.339958841265649,2
1014,284,46,0.279738966230448,2
1014,285,46,0.221605551482853,1
1014,286,46,0.209626617752787,1
1014,287,46,0.2216609969692,1
1014,288,46,0.205247036728466,1
1015,268,46,0.116218285252471,1
1015,269,46,0.132502582195696,1
1015,270,46,0.128576139654414,1
1015,271,46,0.118617633322841,1
1015,272,46,0.128393798434129,1
1015,273,46,0.135824942159099,1
1015,274,46,0.132072867899645,1
1015,275,46,0.123548159704482,1
1015,278,46,0.120960758633691,1
1015,279,46,0.137284826054272,1
1015,280,46,0.172466459249358,1
1015,281,46,0.237701088813682,2
1015,282,46,0.308221175954955,2
1015,283,46,0.319690877987991,2
1015,284,46,0.278799572716449,2
1015,285,46,0.219811393015791,1
1015,286,46,0.191398937670134,1
1016,279,46,0.117242625302795,1
1016,280,46,0.145686442443298,1
1016,281,46,0.229471320457104,2
1016,282,46,0.330081677749326,2
1016,283,46,0.334246966915203,2
1016,284,46,0.311990809522001,2
1016,285,46,0.240005915755459,2
1016,286,46,0.185288027760241,1
1016,290,46,0.184485681638895,1
1016,291,46,0.22313993583398,1
1016,292,46,0.214160734816157,1
1017,280,46,0.126611287287796,1
1017,281,46,0.236001781227468,2
1017,282,46,0.355104739208834,2
1017,283,46,0.353063384318999,2
1017,284,46,0.339281365257246,2
1017,285,46,0.260279131515469,2
1017,286,46,0.190793265215311,1
1017,288,46,0.167743064391477,1
1017,289,46,0.20213426965387,1
1017,290,46,0.239636781659443,1
1017,291,46,0.254358924400904,2
1017,292,46,0.224700818134188,1
1018,281,46,0.195614090087751,2
1018,282,46,0.303362582672423,2
1018,283,46,0.385292074291487,2
1018,284,46,0.436401577572475,2
1018,285,46,0.318308697856394,2
1018,286,46,0.213168580941318,2
1018,287,46,0.200537679895165,1
1018,288,46,0.249405809989779,1
1018,289,46,0.275038112294587,1
1018,290,46,0.265724518936212,1
1018,291,46,0.238935681257325,1
1018,292,46,0.208734237488893,1
1019,281,46,0.155259833471343,1
1019,282,46,0.250770230607058,2
1019,283,46,0.390928082069495,2
1019,284,46,0.460377816943971,2
1019,285,46,0.322880453784326,2
1019,286,46,0.223162994938114,2
1019,287,46,0.246259549507543,1
1019,288,46,0.298408243467207,1
1019,289,46,0.259290086733322,1
1019,290,46,0.201794177310049,1
1019,291,46,0.171298041017224,1
1020,281,46,0.126129495689149,1
1020,282,46,0.203090551194085,1
1020,283,46,0.292369537524346,2
1020,284,46,0.310981484976158,2
1020,285,46,0.234100029310265,2
1020,286,46,0.189898529578165,1
1020,287,46,0.197416409923131,1
1020,288,46,0.20403112239471,1
1020,289,46,0.162387298922963,1
1020,291,46,0.135574919288425,1
1020,292,46,0.157941590794598,1
1020,293,46,0.180621067645472,1
1021,282,46,0.149232727741746,1
1021,283,46,0.200815920137396,1
1021,284,46,0.200964732619442,2
1021,285,46,0.16757423123679,1
1021,290,46,0.124804810218627,1
1021,291,46,0.152808408098376,1
1021,292,46,0.191423492436284,1
1021,293,46,0.20429636097659,1
1021,294,46,0.204771581083866,1
1022,282,46,0.115658966543242,1
1022,283,46,0.162507576058064,1
1022,290,46,0.123145379101565,1
1022,291,46,0.162337200133898,1
1022,292,46,0.208002022606119,1
1022,293,46,0.214049843843464,1
1022,294,46,0.207025838161927,1
1022,295,46,0.178926965434144,1
1023,291,46,0.153751923515566,1
1023,292,46,0.194698038322677,1
1023,293,46,0.222747601311434,1
1023,294,46,0.23844138262671,1
1023,295,46,0.220712064193531,1
1023,296,46,0.159693423204327,1
1024,292,46,0.175614203616742,1
1024,293,46,0.215887058533569,1
1024,294,46,0.253330662654116,1
1024,295,46,0.251931523835105,1
1011,287,47,0.145006575731044,1
1012,277,47,0.122146029561442,1
1012,278,47,0.130394052060721,1
1012,279,47,0.11457238575474,1
1012,281,47,0.116528982538111,1
1012,282,47,0.140122085119609,1
1012,283,47,0.162041082608687,1
1012,284,47,0.189825277470035,1
1012,285,47,0.219303692311374,1
1012,286,47,0.239893140484165,1
1012,287,47,0.243470834684925,1
1012,288,47,0.216123373131918,1
1013,272,47,0.116332567962646,1
1013,273,47,0.129618109673527,1
1013,274,47,0.139417439880747,1
1013,275,47,0.145978131866796,1
1013,276,47,0.139849026698533,1
1013,277,47,0.135960493889738,1
1013,278,47,0.129340305175349,1
1013,279,47,0.120349880803981,1
1013,280,47,0.141901593165046,1
1013,281,47,0.206105476063802,1
1013,282,47,0.246464043013261,1
1013,283,47,0.257619514700779,1
1013,284,47,0.259682327040938,1
1013,285,47,0.256844502686021,1
1013,286,47,0.261433664822284,1
1013,287,47,0.271987008891722,1
1013,288,47,0.242257817460269,1
1013,289,47,0.17687836777156,1
1014,269,47,0.137598903300528,1
1014,270,47,0.137582710109422,1
1014,271,47,0.123345020538384,1
1014,272,47,0.13254116320956,1
1014,273,47,0.138557375337867,1
1014,274,47,0.139743058455936,1
1014,275,47,0.138981260085119,1
1014,276,47,0.126142815324887,1
1014,277,47,0.118164671492795,1
1014,278,47,0.115845512104781,1
1014,279,47,0.12174165908158,1
1014,280,47,0.159788874705355,1
1014,281,47,0.230811669159751,1
1014,282,47,0.280572532824246,2
1014,283,47,0.29045633849314,2
1014,284,47,0.260380082813039,1
1014,285,47,0.224363458023339,1
1014,286,47,0.221800764817959,1
1014,287,47,0.236591166276256,1
1014,288,47,0.212348911049706,1
1015,268,47,0.116452633114155,1
1015,269,47,0.133465918078799,1
1015,270,47,0.120528088344209,1
1015,280,47,0.136833995837019,1
1015,281,47,0.184973302786341,1
1015,282,47,0.242979621593271,2
1015,283,47,0.275667232490132,2
1015,284,47,0.264439168198994,2
1015,285,47,0.225740456333782,1
1015,286,47,0.219560427995816,1
1015,287,47,0.225762785272209,1
1015,291,47,0.218681967987839,1
1015,292,47,0.216580386203957,1
1016,281,47,0.163453917923156,1
1016,282,47,0.249261260733318,2
1016,283,47,0.293596168806398,2
1016,284,47,0.302008431482522,2
1016,285,47,0.25728505169903,2
1016,286,47,0.22293963489265,1
1016,287,47,0.199237796504984,1
1016,289,47,0.152851782296807,1
1016,290,47,0.195353833120298,1
1016,291,47,0.25895166670451,2
1016,292,47,0.24294556289605,1
1016,293,47,0.19421583453371,1
1017,281,47,0.155726562458045,1
1017,282,47,0.249126015201202,2
1017,283,47,0.289252342348038,2
1017,284,47,0.321765349425746,2
1017,285,47,0.295200272205776,2
1017,286,47,0.237861772376917,2
1017,287,47,0.188201765795062,1
1017,288,47,0.174912938338495,1
1017,289,47,0.209344161392436,1
1017,290,47,0.275730827567929,2
1017,291,47,0.322545896567646,2
1017,292,47,0.267863621815995,2
1017,293,47,0.194304620328435,1
1018,281,47,0.138318952680457,1
1018,282,47,0.224937862898245,2
1018,283,47,0.311533466697707,2
1018,284,47,0.405189160496923,2
1018,285,47,0.359212156853915,2
1018,286,47,0.262202741296448,2
1018,287,47,0.221356070348027,1
1018,288,47,0.253558733446083,1
1018,289,47,0.297483241283776,1
1018,290,47,0.304335964222446,2
1018,291,47,0.283888450841806,2
1018,292,47,0.224682752421347,1
1018,293,47,0.173890706347232,1
1019,281,47,0.117345649328827,1
1019,282,47,0.188553552567079,2
1019,283,47,0.29892329293617,2
1019,284,47,0.401777166804425,2
1019,285,47,0.335346973331239,2
1019,286,47,0.248001889763067,2
1019,287,47,0.247074697082512,1
1019,288,47,0.285701405187418,1
1019,289,47,0.267495759621535,1
1019,290,47,0.212084873708184,1
1019,291,47,0.181127048927415,1
1019,292,47,0.175388488198025,1
1019,293,47,0.187185351575731,1
1020,282,47,0.146008633950407,1
1020,283,47,0.218367878964717,2
1020,284,47,0.265674349485949,2
1020,285,47,0.227877510038836,2
1020,286,47,0.193046886342594,1
1020,287,47,0.193793586770867,1
1020,288,47,0.194501765069607,1
1020,289,47,0.162698243522794,1
1020,290,47,0.134091870297321,1
1020,291,47,0.137633327080602,1
1020,292,47,0.170324624136603,1
1020,293,47,0.209274630774044,1
1020,294,47,0.224602104441207,1
1021,283,47,0.16109567111603,1
1021,284,47,0.177114234848991,1
1021,285,47,0.158874695462015,1
1021,290,47,0.126361841483569,1
1021,291,47,0.145894457232028,1
1021,292,47,0.180851894224144,1
1021,293,47,0.204697669471225,1
1021,294,47,0.211762305341355,1
1021,295,47,0.189663957956022,1
1022,283,47,0.140162055803692,1
1022,290,47,0.125974417914253,1
1022,291,47,0.150621173166194,1
1022,292,47,0.190232015100015,1
1022,293,47,0.212676661237688,1
1022,294,47,0.216912611601118,1
1022,295,47,0.189845074382216,1
1023,291,47,0.157735154105948,1
1023,292,47,0.204933583656122,1
1023,293,47,0.239775065623054,1
1023,294,47,0.250201078214503,1
1023,295,47,0.226315355837072,1
1023,296,47,0.165258298710132,1
1024,292,47,0.187453510820443,1
1024,293,47,0.213506223696958,1
1024,294,47,0.230762465412521,1
1024,295,47,0.226371366612999,1
1011,286,48,0.159101588567357,1
1011,287,48,0.160346297339116,1
1012,282,48,0.132281930829471,1
1012,283,48,0.157738663612093,1
1012,285,48,0.222485848681966,1
1012,286,48,0.250505792852083,1
1012,287,48,0.249227366912225,1
1012,288,48,0.216818396671047,1
1013,272,48,0.115377405224727,1
1013,273,48,0.118904741545364,1
1013,280,48,0.12486467202982,1
1013,281,48,0.174054993631542,1
1013,282,48,0.206378793575936,1
1013,283,48,0.216168078116237,1
1013,284,48,0.235136110896249,1
1013,285,48,0.253261697325304,1
1013,286,48,0.265187870694531,1
1013,287,48,0.264100724616449,1
1013,288,48,0.229978338103278,1
1013,289,48,0.181613845694222,1
1014,268,48,0.114285077325491,1
1014,269,48,0.137377498214863,1
1014,270,48,0.124934167317613,1
1014,280,48,0.128318426490073,1
1014,281,48,0.179686773514563,1
1014,282,48,0.21491108607297,1
1014,283,48,0.220423201217935,1
1014,284,48,0.216524964271343,1
1014,285,48,0.213798266426444,1
1014,286,48,0.23379920103855,1
1014,287,48,0.253446311480777,1
1014,288,48,0.213202027241493,1
1014,291,48,0.183167308568688,1
1014,292,48,0.19082773610285,1
1015,269,48,0.118586671941447,1
1015,281,48,0.130690581776251,1
1015,282,48,0.176713962718587,1
1015,283,48,0.216702983381711,1
1015,284,48,0.227233857190328,1
1015,285,48,0.223369514064829,1
1015,286,48,0.253750578597439,1
1015,287,48,0.282389797502909,2
1015,288,48,0.219449866775378,1
1015,290,48,0.171448890897132,1
1015,291,48,0.222334445289343,1
1015,292,48,0.222111956731982,1
1015,293,48,0.181137047486869,1
1016,282,48,0.164651319023153,1
1016,283,48,0.226927258254146,1
1016,284,48,0.261360860235072,2
1016,285,48,0.265012607370867,2
1016,286,48,0.262925534686216,2
1016,287,48,0.251223781280417,1
1016,288,48,0.190774575328558,1
1016,289,48,0.163112176818058,1
1016,290,48,0.211481992370663,2
1016,291,48,0.283101826836916,2
1016,292,48,0.257709584173927,1
1016,293,48,0.206370714645683,1
1017,282,48,0.15555703446825,1
1017,283,48,0.221090878873612,2
1017,284,48,0.291672629686616,2
1017,285,48,0.328385290825944,2
1017,286,48,0.28272960720194,2
1017,287,48,0.219033271908339,1
1017,288,48,0.185033859432643,1
1017,289,48,0.224538391594747,2
1017,290,48,0.329541567108965,2
1017,291,48,0.40019864275856,2
1017,292,48,0.296272673647302,2
1017,293,48,0.198016040845564,1
1018,282,48,0.147303417957498,1
1018,283,48,0.228605061282572,2
1018,284,48,0.341078138188618,2
1018,285,48,0.379930773695832,2
1018,286,48,0.303644473743194,2
1018,287,48,0.236202317706123,2
1018,288,48,0.244658343217265,1
1018,289,48,0.304029223963869,2
1018,290,48,0.349511528562811,2
1018,291,48,0.345358958412493,2
1018,292,48,0.235215534082298,2
1018,293,48,0.167216379378651,1
1019,282,48,0.129139662704897,1
1019,283,48,0.211712866056801,2
1019,284,48,0.313793211795445,2
1019,285,48,0.322319969165338,2
1019,286,48,0.264436294643627,2
1019,287,48,0.241591081953893,1
1019,288,48,0.262988800011758,1
1019,289,48,0.263238139824189,1
1019,290,48,0.225634064124,2
1019,291,48,0.20222108871193,2
1019,292,48,0.185375518099677,1
1019,293,48,0.200739229184318,1
1019,294,48,0.201956015006177,1
1020,283,48,0.163043211489247,1
1020,284,48,0.218759271337962,2
1020,285,48,0.215883525473691,2
1020,286,48,0.194257736623859,1
1020,287,48,0.190175921886025,1
1020,288,48,0.190553617763811,1
1020,289,48,0.167333052792677,1
1020,290,48,0.13917403560891,1
1020,292,48,0.17908742523692,1
1020,293,48,0.228487127743857,1
1020,294,48,0.241827043246255,1
1020,295,48,0.201778631846587,1
1021,283,48,0.129172378839364,1
1021,284,48,0.156048553758427,1
1021,285,48,0.152959387523814,1
1021,291,48,0.145873694616813,1
1021,292,48,0.176944518429335,1
1021,293,48,0.209179473694673,1
1021,294,48,0.220206954399691,1
1021,295,48,0.193040409066152,1
1022,284,48,0.121981129880086,1
1022,291,48,0.149700528423278,1
1022,292,48,0.189670341017534,1
1022,293,48,0.22391365239345,1
1022,294,48,0.230657062459505,1
1022,295,48,0.200034760598449,1
1023,291,48,0.163690444505098,1
1023,292,48,0.214256150986586,1
1023,293,48,0.250451477944897,1
1023,294,48,0.250778073999986,1
1023,295,48,0.216142875622443,1
1024,292,48,0.183332808870223,1
1024,293,48,0.197134577736692,1
1024,294,48,0.199259489492633,1
1011,286,49,0.19561516178258,1
1011,287,49,0.208554852262039,1
1011,288,49,0.190632982065529,1
1011,289,49,0.182523325967924,1
1012,282,49,0.124431542442554,1
1012,283,49,0.154685522811366,1
1012,284,49,0.186282348578471,1
1012,285,49,0.215571862485019,1
1012,286,49,0.250389720058236,1
1012,287,49,0.254255287977826,1
1012,288,49,0.228638743120073,1
1012,289,49,0.212358167666585,1
1013,281,49,0.138636798523916,1
1013,282,49,0.161994846631755,1
1013,283,49,0.178708528118776,1
1013,284,49,0.209200389409149,1
1013,285,49,0.238834258885104,1
1013,286,49,0.254703939474822,1
1013,287,49,0.243766316259358,1
1013,288,49,0.212263293232005,1
1014,269,49,0.118141683049858,1
1014,281,49,0.129596275363484,1
1014,282,49,0.155380369697501,1
1014,283,49,0.167450833232131,1
1014,284,49,0.184695886924748,1
1014,285,49,0.210588787726131,1
1014,286,49,0.249664100220567,1
1014,287,49,0.262462491858652,2
1014,288,49,0.206279467485909,1
1014,291,49,0.190488291486673,1
1014,292,49,0.20763154594735,1
1015,282,49,0.128291881433525,1
1015,283,49,0.16757212317773,1
1015,284,49,0.196326190082955,1
1015,285,49,0.225572306237339,1
1015,286,49,0.286865006681252,2
1015,287,49,0.320629965303468,2
1015,288,49,0.23144587696152,2
1015,289,49,0.17329506778246,1
1015,290,49,0.183833372793687,1
1015,291,49,0.219576821393648,2
1015,292,49,0.226785417676926,1
1015,293,49,0.201046793823533,1
1016,282,49,0.114650607700431,1
1016,283,49,0.174675528491584,1
1016,284,49,0.22772561201783,1
1016,285,49,0.272047541984293,2
1016,286,49,0.304704485921416,2
1016,287,49,0.301320568278078,2
1016,288,49,0.217211037392116,1
1016,289,49,0.183201414373373,1
1016,290,49,0.237375246478034,2
1016,291,49,0.298558257189612,2
1016,292,49,0.263136434807178,2
1016,293,49,0.219679892527145,1
1017,283,49,0.172750953007571,1
1017,284,49,0.258419964746657,2
1017,285,49,0.342797678431065,2
1017,286,49,0.329383898423492,2
1017,287,49,0.262777263940017,2
1017,288,49,0.204887017926934,1
1017,289,49,0.233395278079606,2
1017,290,49,0.367460744642774,2
1017,291,49,0.445502928247134,2
1017,292,49,0.308526455882116,2
1017,293,49,0.202871430820474,2
1018,283,49,0.16730301000685,1
1018,284,49,0.269997166014903,2
1018,285,49,0.366722382235813,2
1018,286,49,0.3374299241127,2
1018,287,49,0.260870212432998,2
1018,288,49,0.236749682896099,1
1018,289,49,0.28007521931587,2
1018,290,49,0.36237104213678,2
1018,291,49,0.380571152575521,2
1018,292,49,0.251142026274848,2
1018,293,49,0.177902825590546,1
1019,283,49,0.154604227103581,1
1019,284,49,0.239838637147119,2
1019,285,49,0.295126902328984,2
1019,286,49,0.277834599848936,2
1019,287,49,0.24602469524061,1
1019,288,49,0.247817770235977,1
1019,289,49,0.245705471503799,1
1019,290,49,0.228251849509738,2
1019,291,49,0.215964762297145,2
1019,292,49,0.198529229569657,1
1019,293,49,0.214973644786537,1
1019,294,49,0.207206495290337,1
1020,283,49,0.132390478205778,1
1020,284,49,0.190080859021584,1
1020,285,49,0.208336886021321,1
1020,286,49,0.20027950743304,1
1020,287,49,0.196659463621213,1
1020,288,49,0.204969573759408,1
1020,289,49,0.185785164615623,1
1020,290,49,0.150213764254837,1
1020,291,49,0.147463124040833,1
1020,292,49,0.18024317156096,1
1020,293,49,0.234816887159438,1
1020,294,49,0.246882687055029,1
1020,295,49,0.198883619029117,1
1021,284,49,0.144637842048481,1
1021,285,49,0.151967952037817,1
1021,292,49,0.174164188735493,1
1021,293,49,0.213352205840026,1
1021,294,49,0.228523259169539,1
1021,295,49,0.200522110877971,1
1022,291,49,0.148000019596705,1
1022,292,49,0.19352748847775,1
1022,293,49,0.232903381929708,1
1022,294,49,0.238461261976955,1
1022,295,49,0.207557822764569,1
1023,291,49,0.164627423761514,1
1023,292,49,0.209411807712227,1
1023,293,49,0.241117298624302,1
1023,294,49,0.235600920253751,1
1023,295,49,0.198861054553365,1
1024,292,49,0.164876504482888,1
1024,293,49,0.171630737489035,1
1024,294,49,0.170239571608482,1
1010,287,50,0.184896505841467,1
1010,288,50,0.179566991007844,1
1010,289,50,0.166368032817698,1
1011,283,50,0.12392175723281,1
1011,286,50,0.216820846259229,1
1011,287,50,0.240933508849467,1
1011,288,50,0.24392593990463,1
1011,289,50,0.242559776311144,1
1011,290,50,0.206003935922919,1
1012,282,50,0.116057319044446,1
1012,283,50,0.147725159315091,1
1012,284,50,0.180810898952697,1
1012,286,50,0.226865759458543,1
1012,287,50,0.235476556546058,1
1012,288,50,0.230207751458,1
1012,289,50,0.236100353598054,1
1012,290,50,0.218670238229046,1
1013,282,50,0.122067477863496,1
1013,283,50,0.145116477446971,1
1013,284,50,0.182551931976067,1
1013,285,50,0.211776154936076,1
1013,286,50,0.22472375946966,1
1013,287,50,0.210192354854127,1
1013,288,50,0.189440350596366,1
1013,289,50,0.192065814498905,1
1014,283,50,0.129073582708319,1
1014,284,50,0.162338507366053,1
1014,285,50,0.206722701624426,1
1014,286,50,0.251511348800724,2
1014,287,50,0.247436293984122,2
1014,288,50,0.190298283526454,1
1014,291,50,0.191739854394594,1
1014,292,50,0.220249398225688,1
1015,283,50,0.126550977955685,1
1015,284,50,0.170114925255998,1
1015,285,50,0.228606191861733,2
1015,286,50,0.306750739987614,2
1015,287,50,0.321379445072178,2
1015,288,50,0.224404465071652,2
1015,289,50,0.186031395335362,1
1015,290,50,0.199335874247187,1
1015,291,50,0.214000710757432,2
1015,292,50,0.226117857789912,1
1015,293,50,0.225411010277059,1
1016,283,50,0.132161547702574,1
1016,284,50,0.197414231202873,1
1016,285,50,0.274694463337155,2
1016,286,50,0.344341225184141,2
1016,287,50,0.335863930652535,2
1016,288,50,0.235686161211732,2
1016,289,50,0.212552014885205,1
1016,290,50,0.271663262838268,2
1016,291,50,0.306964278126619,2
1016,292,50,0.255134454597778,2
1016,293,50,0.215723784059757,1
1017,283,50,0.132745715599609,1
1017,284,50,0.220064948946343,2
1017,285,50,0.33138262105747,2
1017,286,50,0.373242102504148,2
1017,287,50,0.313597550939422,2
1017,288,50,0.227258400179611,2
1017,289,50,0.239194018595578,2
1017,290,50,0.375822508116381,2
1017,291,50,0.45193022366907,2
1017,292,50,0.316287245870536,2
1017,293,50,0.210324349971156,2
1018,283,50,0.122597637051868,1
1018,284,50,0.209815660009974,2
1018,285,50,0.327137131432371,2
1018,286,50,0.359553992173943,2
1018,287,50,0.291325447669306,2
1018,288,50,0.229246594295154,2
1018,289,50,0.239212131415884,2
1018,290,50,0.333522995838809,2
1018,291,50,0.380419725629165,2
1018,292,50,0.27772255474335,2
1018,293,50,0.203734156935128,1
1019,284,50,0.185062748085576,1
1019,285,50,0.261159334499651,2
1019,286,50,0.285636867960319,2
1019,287,50,0.255761337188734,2
1019,288,50,0.239097919366906,1
1019,289,50,0.226267706636189,1
1019,290,50,0.223512720758536,2
1019,291,50,0.22141325881058,2
1019,292,50,0.209484918497962,1
1019,293,50,0.21702948522187,1
1019,294,50,0.201802939298545,1
1020,284,50,0.15997388927428,1
1020,285,50,0.195221873333868,1
1020,286,50,0.20636367207966,1
1020,287,50,0.209364394048669,1
1020,288,50,0.229554582901554,1
1020,289,50,0.211317728640086,1
1020,290,50,0.16680668575524,1
1020,291,50,0.148036186352986,1
1020,292,50,0.172111586938381,1
1020,293,50,0.218579956772306,1
1020,294,50,0.228289511928034,1
1020,295,50,0.191874463975932,1
1021,284,50,0.127860011970949,1
1021,285,50,0.146522175980488,1
1021,292,50,0.16365102733373,1
1021,293,50,0.207800803069221,1
1021,294,50,0.222248144413399,1
1021,295,50,0.198382489816073,1
1022,291,50,0.135600722402398,1
1022,292,50,0.176248964931225,1
1022,293,50,0.217455266044591,1
1022,294,50,0.223341296693273,1
1022,295,50,0.197891700691604,1
1023,292,50,0.183572385660525,1
1023,293,50,0.20837532571279,1
1023,294,50,0.20486845758571,1
1023,295,50,0.177881497685752,1
1024,293,50,0.154131633237482,1
1024,294,50,0.153573115355159,1
1009,288,51,0.132066908805318,1
1010,283,51,0.114518624360269,1
1010,285,51,0.181546870655808,1
1010,286,51,0.22113501856835,1
1010,287,51,0.229838334717194,1
1010,288,51,0.234075768965772,1
1010,289,51,0.205381293003816,1
1011,271,51,0.118819217942593,1
1011,272,51,0.125925920778999,1
1011,283,51,0.141966683904858,1
1011,284,51,0.182817147004215,1
1011,285,51,0.217950483270773,1
1011,286,51,0.253904408024512,1
1011,287,51,0.270048042077142,4
1011,288,51,0.302639318208006,4
1011,289,51,0.305903441567759,4
1011,290,51,0.232187160031313,1
1012,271,51,0.119389960212093,1
1012,272,51,0.123932933478889,1
1012,282,51,0.114384438746116,1
1012,283,51,0.141574007853191,1
1012,284,51,0.184296768927238,1
1012,285,51,0.207937556040218,1
1012,286,51,0.220641897624361,1
1012,287,51,0.217259746510962,1
1012,288,51,0.228828586204164,1
1012,289,51,0.253857041468419,1
1012,290,51,0.239399124498341,1
1012,291,51,0.17661164530453,1
1013,283,51,0.12546960254207,1
1013,284,51,0.168960627486509,1
1013,285,51,0.199886701835844,1
1013,286,51,0.203047400756112,1
1013,287,51,0.180625872606905,1
1013,288,51,0.168068506313672,1
1013,289,51,0.191875300133437,1
1013,290,51,0.217449589595054,1
1014,284,51,0.160532395379738,1
1014,285,51,0.21675218712894,1
1014,286,51,0.244586363010691,2
1014,287,51,0.215325867302605,1
1014,288,51,0.170504056470922,1
1014,290,51,0.187547666866182,1
1014,291,51,0.192148005248525,1
1015,284,51,0.167750966668736,1
1015,285,51,0.250687038823806,2
1015,286,51,0.318110186998735,2
1015,287,51,0.292823300181298,2
1015,288,51,0.213641869642527,1
1015,289,51,0.205553258804927,1
1015,290,51,0.224577891204179,2
1015,291,51,0.21316120862304,2
1015,292,51,0.210734020040835,1
1016,284,51,0.187652904943071,2
1016,285,51,0.289690795078853,2
1016,286,51,0.379968224130535,2
1016,287,51,0.350477655563217,2
1016,288,51,0.258094923237915,2
1016,289,51,0.267521904264629,2
1016,290,51,0.318314727611918,2
1016,291,51,0.3035826923028,2
1016,292,51,0.23496678311318,2
1016,293,51,0.201055414489634,1
1017,284,51,0.196839555460043,2
1017,285,51,0.313380102880819,2
1017,286,51,0.406453948825653,2
1017,287,51,0.362496442208703,2
1017,288,51,0.254277475593858,2
1017,289,51,0.252696973034462,2
1017,290,51,0.352834065179208,2
1017,291,51,0.405212949766766,2
1017,292,51,0.310431976396522,2
1017,293,51,0.222104914165959,2
1017,294,51,0.179991311499149,1
1018,284,51,0.177775329236428,2
1018,285,51,0.291942367031407,2
1018,286,51,0.379281067538067,2
1018,287,51,0.334344762012616,2
1018,288,51,0.230618128139654,2
1018,289,51,0.202120349397952,1
1018,290,51,0.272867682950555,2
1018,291,51,0.336784504734253,2
1018,292,51,0.290589252205736,2
1018,293,51,0.227148804662207,1
1018,294,51,0.175653455911982,1
1019,284,51,0.159266123165859,1
1019,285,51,0.247052815665003,2
1019,286,51,0.307267391110388,2
1019,287,51,0.281326582017064,2
1019,288,51,0.235574987594249,1
1019,289,51,0.206273343515455,1
1019,290,51,0.205451436019253,1
1019,291,51,0.209466028404482,2
1019,292,51,0.200852805282518,1
1019,293,51,0.193631595975477,1
1019,294,51,0.177212842550176,1
1020,284,51,0.143185754438772,1
1020,285,51,0.195703876916108,1
1020,286,51,0.226829769355256,2
1020,287,51,0.232656939226377,1
1020,288,51,0.250218413761636,1
1020,289,51,0.22439509068611,1
1020,291,51,0.141966377706336,1
1020,292,51,0.153961669503635,1
1020,293,51,0.182145488767743,1
1020,294,51,0.1878166622684,1
1020,295,51,0.174026399400265,1
1021,284,51,0.117909125271845,1
1021,285,51,0.147636561950226,1
1021,286,51,0.16775787968923,1
1021,287,51,0.176431176605981,1
1021,288,51,0.190316761429614,1
1021,291,51,0.126084802481697,1
1021,292,51,0.157394814447935,1
1021,293,51,0.197676749328648,1
1021,294,51,0.203513270031578,1
1021,295,51,0.184102415303369,1
1021,296,51,0.154635435799167,1
1022,285,51,0.117241365178105,1
1022,291,51,0.132172806386717,1
1022,292,51,0.165433644471859,1
1022,293,51,0.202163499835925,1
1022,294,51,0.205346951661805,1
1022,295,51,0.185100516495668,1
1022,296,51,0.1537470950004,1
1023,292,51,0.166752417955519,1
1023,293,51,0.183243234025458,1
1023,294,51,0.181559625001967,1
1023,295,51,0.165959634649576,1
1024,293,51,0.158745479685424,1
1024,294,51,0.155771950500606,1
1009,285,52,0.140907766975199,1
1009,286,52,0.162984433149749,1
1009,287,52,0.189120761776701,1
1009,288,52,0.17079794816841,1
1009,289,52,0.120872467467349,1
1010,283,52,0.144991454234768,1
1010,284,52,0.218503572017751,1
1010,285,52,0.255316878256127,4
1010,286,52,0.2585746421081,1
1010,287,52,0.288049735873154,4
1010,288,52,0.30691132933592,4
1010,289,52,0.243124217957196,4
1010,290,52,0.151726055204861,1
1011,271,52,0.129010682465631,1
1011,272,52,0.135982693282636,1
1011,281,52,0.129143372417769,1
1011,282,52,0.149783143140084,1
1011,283,52,0.174737345262577,1
1011,284,52,0.259329068160639,1
1011,285,52,0.311123325553378,4
1011,286,52,0.286575719738471,4
1011,287,52,0.292489449576593,4
1011,288,52,0.362234289165782,4
1011,289,52,0.359889161787668,4
1011,290,52,0.24067307522902,4
1011,291,52,0.141026148034832,1
1012,271,52,0.130383770856477,1
1012,272,52,0.130797539275613,1
1012,281,52,0.122434056379533,1
1012,282,52,0.139303157170571,1
1012,283,52,0.15058306322698,1
1012,284,52,0.199011562904153,1
1012,285,52,0.235242715089623,1
1012,286,52,0.220322744548748,1
1012,287,52,0.204994988236795,4
1012,288,52,0.239932192572679,4
1012,289,52,0.283557002717818,4
1012,290,52,0.254689548144253,1
1012,291,52,0.181385244943273,1
1013,283,52,0.119851931344827,1
1013,284,52,0.158647460827552,1
1013,285,52,0.190424896615602,1
1013,286,52,0.182821469114132,1
1013,288,52,0.15621025013216,1
1013,289,52,0.199428204878656,1
1013,290,52,0.236757290751702,1
1013,291,52,0.206263050534345,1
1014,284,52,0.161903976331702,1
1014,285,52,0.224299274102228,1
1014,286,52,0.227317684924358,2
1014,287,52,0.182695974827278,1
1014,288,52,0.152753586785942,1
1014,289,52,0.166517975878905,1
1014,290,52,0.201717721894297,1
1014,291,52,0.196861860844737,1
1015,284,52,0.173868766045391,1
1015,285,52,0.283647896571603,2
1015,286,52,0.32887268821293,2
1015,287,52,0.265694817679507,2
1015,288,52,0.206956472419663,1
1015,289,52,0.225611405433318,2
1015,290,52,0.253934674570797,2
1015,291,52,0.218450811656912,1
1015,292,52,0.196862932539566,1
1016,284,52,0.183665528895766,2
1016,285,52,0.317654445828252,2
1016,286,52,0.411970421411134,2
1016,287,52,0.354768109263692,2
1016,288,52,0.280903439212386,2
1016,289,52,0.320753834382778,2
1016,290,52,0.355509863408137,2
1016,291,52,0.289497183397558,2
1016,292,52,0.217096519144615,1
1016,293,52,0.189384728457026,1
1017,284,52,0.176736715624199,2
1017,285,52,0.301191116964161,2
1017,286,52,0.422054009839242,2
1017,287,52,0.389878245103721,2
1017,288,52,0.278100780580117,2
1017,289,52,0.264783335338541,2
1017,290,52,0.315475937553967,2
1017,291,52,0.336093061362467,2
1017,292,52,0.292570568631384,2
1017,293,52,0.226259085970087,1
1017,294,52,0.178906367695057,1
1018,284,52,0.154568036793568,1
1018,285,52,0.272047400661898,2
1018,286,52,0.396695307691358,2
1018,287,52,0.368201132670732,2
1018,288,52,0.237103059545061,2
1018,289,52,0.180415596659855,1
1018,290,52,0.221839722691543,2
1018,291,52,0.286913739353831,2
1018,292,52,0.287597245117759,1
1018,293,52,0.235226557229116,1
1018,294,52,0.177697107290738,1
1019,284,52,0.140110696889937,1
1019,285,52,0.246481849635044,2
1019,286,52,0.341332636268471,2
1019,287,52,0.311695163071441,2
1019,288,52,0.234549363865503,2
1019,289,52,0.192509778803129,1
1019,290,52,0.193657552188712,1
1019,291,52,0.201824844269787,1
1019,292,52,0.190338701731454,1
1019,293,52,0.169925600354022,1
1019,294,52,0.15274005516661,1
1020,284,52,0.124776510409007,1
1020,285,52,0.195214194817067,1
1020,286,52,0.247871755390908,2
1020,287,52,0.248720019513796,2
1020,288,52,0.250126601312282,1
1020,289,52,0.220513506228408,1
1020,291,52,0.14130656699732,1
1020,292,52,0.137332557693219,1
1020,293,52,0.150142325784111,1
1020,294,52,0.151486925935477,1
1020,295,52,0.151702854778332,1
1021,285,52,0.144702709027835,1
1021,286,52,0.175731442320348,1
1021,287,52,0.184918457920173,1
1021,288,52,0.191578770417906,1
1021,291,52,0.119346256261406,1
1021,292,52,0.143665744176881,1
1021,293,52,0.18093132918706,1
1021,294,52,0.180092698540771,1
1021,295,52,0.162619585833052,1
1021,296,52,0.145928645474777,1
1022,285,52,0.11674382790927,1
1022,291,52,0.122299788327317,1
1022,292,52,0.146053315380992,1
1022,293,52,0.179242067267764,1
1022,294,52,0.1807117024082,1
1022,295,52,0.164309966554642,1
1022,296,52,0.145840990259213,1
1023,292,52,0.154481111743712,1
1023,293,52,0.165298175179284,1
1023,294,52,0.164255051027277,1
1023,295,52,0.157471693830872,1
1024,293,52,0.176211914909974,1
1024,294,52,0.163913616120702,1
1009,284,53,0.153528186610381,1
1009,285,53,0.176595558105221,4
1009,286,53,0.190559364874545,1
1009,287,53,0.233535846755271,4
1009,288,53,0.20065167996055,4
1009,289,53,0.131300858985782,1
1010,282,53,0.133486822016409,1
1010,283,53,0.166140044463794,1
1010,284,53,0.275454824930288,4
1010,285,53,0.324352114545758,4
1010,286,53,0.278579415978607,4
1010,287,53,0.319606390749451,4
1010,288,53,0.335252617078774,4
1010,289,53,0.247355151375599,4
1010,290,53,0.145098376403532,1
1011,271,53,0.116043080813139,1
1011,272,53,0.122629222607174,1
1011,281,53,0.180663217049812,1
1011,282,53,0.205957440854929,1
1011,283,53,0.204720139732047,1
1011,284,53,0.314255406688638,4
1011,285,53,0.383736774225885,4
1011,286,53,0.29746465738882,4
1011,287,53,0.296216450887783,4
1011,288,53,0.370830530046602,4
1011,289,53,0.353828150460113,4
1011,290,53,0.219367263835439,4
1011,291,53,0.132692978792502,1
1012,271,53,0.12156502964143,1
1012,272,53,0.120785542417493,1
1012,281,53,0.160098205874508,1
1012,282,53,0.179580263536118,1
1012,283,53,0.163498175386557,1
1012,284,53,0.205247766894174,1
1012,285,53,0.25117749819602,4
1012,286,53,0.214751109121711,4
1012,287,53,0.19993147748136,4
1012,288,53,0.245862763329552,4
1012,289,53,0.292000591858191,4
1012,290,53,0.243120378698796,1
1012,291,53,0.172730838120001,1
1013,283,53,0.121449734120757,1
1013,284,53,0.155159400355887,1
1013,285,53,0.186489833408219,1
1013,286,53,0.16761477898732,1
1013,288,53,0.149248602957463,1
1013,289,53,0.199963581218781,1
1013,290,53,0.231761120117535,1
1013,291,53,0.199568655785659,1
1014,284,53,0.168786506518872,1
1014,285,53,0.239296383117099,2
1014,286,53,0.217864724130676,2
1014,287,53,0.160143299495413,1
1014,288,53,0.140857420871942,1
1014,289,53,0.165931405501153,1
1014,290,53,0.213819606108105,1
1014,291,53,0.205749861810251,1
1015,284,53,0.185088939836136,2
1015,285,53,0.322220172000661,2
1015,286,53,0.342445243931404,2
1015,287,53,0.252969843025679,2
1015,288,53,0.206776592564426,2
1015,289,53,0.229638269313189,2
1015,290,53,0.266094383197935,2
1015,291,53,0.22853534223432,1
1015,292,53,0.190410646607429,1
1016,284,53,0.182861369137017,2
1016,285,53,0.339832663920553,2
1016,286,53,0.419766565552063,2
1016,287,53,0.351048927791699,2
1016,288,53,0.297271658104571,2
1016,289,53,0.325949340255241,2
1016,290,53,0.338921464224377,2
1016,291,53,0.264514210390795,2
1016,292,53,0.208594775838657,1
1016,293,53,0.189080826423218,1
1017,284,53,0.164127684218688,2
1017,285,53,0.291378043154018,2
1017,286,53,0.402431772138554,2
1017,287,53,0.371817502100286,2
1017,288,53,0.282756623333138,2
1017,289,53,0.252926904571299,2
1017,290,53,0.260937811645323,2
1017,291,53,0.261993277953169,2
1017,292,53,0.260636559406423,1
1017,293,53,0.226729383347266,1
1017,294,53,0.183781095284364,1
1018,284,53,0.142868992067009,1
1018,285,53,0.264459023995506,2
1018,286,53,0.396115037937055,2
1018,287,53,0.363979997605057,2
1018,288,53,0.23772155700724,2
1018,289,53,0.170005317961728,1
1018,290,53,0.186227727472763,1
1018,291,53,0.23952195721342,1
1018,292,53,0.266082111703294,1
1018,293,53,0.233386304107517,1
1018,294,53,0.181074453442703,1
1019,284,53,0.128804175115783,1
1019,285,53,0.247122134299803,2
1019,286,53,0.365084125924284,2
1019,287,53,0.32283914053749,2
1019,288,53,0.225438874342627,2
1019,289,53,0.17694053784854,1
1019,291,53,0.203224053749994,1
1019,292,53,0.196851909392748,1
1019,293,53,0.171143245887118,1
1019,294,53,0.145526383053975,1
1020,284,53,0.114556887398744,1
1020,285,53,0.196740394246143,1
1020,286,53,0.2671416056994,2
1020,287,53,0.254257313598823,2
1020,288,53,0.230014799281215,1
1020,291,53,0.155675179990558,1
1020,292,53,0.14170600297022,1
1020,293,53,0.14495886764583,1
1020,294,53,0.134575310657244,1
1020,295,53,0.133450855466854,1
1021,285,53,0.149486201234234,1
1021,286,53,0.188141656669677,1
1021,287,53,0.18954629528523,1
1021,291,53,0.124938218559606,1
1021,292,53,0.137823617685612,1
1021,293,53,0.173188428258487,1
1021,294,53,0.162540939920175,1
1021,295,53,0.14446011735977,1
1021,296,53,0.137491792701904,1
1022,285,53,0.124311229976854,1
1022,291,53,0.121098524415187,1
1022,292,53,0.137876189616591,1
1022,293,53,0.168926003499708,1
1022,294,53,0.164359252739935,1
1022,295,53,0.150085961702196,1
1023,291,53,0.132373036666849,1
1023,292,53,0.153240042023627,1
1023,293,53,0.158332559200658,1
1023,294,53,0.153743644378586,1
1023,295,53,0.150929479747983,1
1024,292,53,0.191464793906254,1
1024,293,53,0.187452274249486,1
1024,294,53,0.165454524855736,1
1008,285,54,0.118802388800709,1
1008,286,54,0.13021446662714,1
1008,287,54,0.136231196937563,1
1009,284,54,0.188150724856697,1
1009,285,54,0.246147103988504,4
1009,286,54,0.241370077281681,4
1009,287,54,0.261003691435175,4
1009,288,54,0.208739136665257,4
1009,289,54,0.138662589861023,1
1010,281,54,0.131679497012869,1
1010,282,54,0.153005340855956,1
1010,283,54,0.181254863256922,1
1010,284,54,0.307207894382049,4
1010,285,54,0.393468516997645,4
1010,286,54,0.313469465741991,4
1010,287,54,0.324579902692936,4
1010,288,54,0.31314602588706,4
1010,289,54,0.225299671783448,4
1010,290,54,0.138003521094582,1
1011,280,54,0.146658905397752,1
1011,281,54,0.232519832949392,1
1011,282,54,0.260919934362343,1
1011,283,54,0.233930937064521,4
1011,284,54,0.32734350923669,4
1011,285,54,0.40853171778596,4
1011,286,54,0.301052809446818,4
1011,287,54,0.291133484749288,4
1011,288,54,0.338337425872871,4
1011,289,54,0.303158984208541,4
1011,290,54,0.190085393115093,1
1012,280,54,0.132081052821695,1
1012,281,54,0.194161766940716,1
1012,282,54,0.213098013958696,1
1012,283,54,0.178941368541578,1
1012,284,54,0.203395666245118,4
1012,285,54,0.247563389924787,4
1012,286,54,0.207310485019402,4
1012,287,54,0.200976061964783,4
1012,288,54,0.246290616880734,4
1012,289,54,0.274684570769498,1
1012,290,54,0.219419600229093,1
1013,283,54,0.122247758132185,1
1013,284,54,0.152123842416485,1
1013,285,54,0.183039882875768,1
1013,286,54,0.161820713887252,1
1013,288,54,0.147867647619957,1
1013,289,54,0.192677363609992,1
1013,290,54,0.213537526607474,1
1014,284,54,0.170834585999341,1
1014,285,54,0.258309050220232,2
1014,286,54,0.23236628616711,2
1014,287,54,0.156040569043103,1
1014,288,54,0.135414271055789,1
1014,289,54,0.165072612859829,1
1014,290,54,0.217976769236263,1
1014,291,54,0.218488003000557,1
1015,284,54,0.189935980012868,2
1015,285,54,0.353370807635819,2
1015,286,54,0.366677206176844,2
1015,287,54,0.254243110698115,2
1015,288,54,0.207950911006556,2
1015,289,54,0.217660159963761,1
1015,290,54,0.260022113186237,1
1015,291,54,0.247716583401082,1
1015,292,54,0.195389823223585,1
1016,284,54,0.175209939128676,2
1016,285,54,0.339502322821993,2
1016,286,54,0.407019238406076,2
1016,287,54,0.340115826892879,2
1016,288,54,0.301968790550695,2
1016,289,54,0.289716303771169,2
1016,290,54,0.290668746052983,2
1016,291,54,0.24865868559432,1
1016,292,54,0.209020415338982,1
1017,284,54,0.154242347557181,2
1017,285,54,0.286968878641654,2
1017,286,54,0.376062049576085,2
1017,287,54,0.339480936032867,2
1017,288,54,0.285295362392547,2
1017,289,54,0.23630960495774,1
1017,290,54,0.221108379296872,1
1017,291,54,0.217544746674425,1
1017,292,54,0.230078488573943,1
1017,293,54,0.221511501428911,1
1018,284,54,0.136924124194498,1
1018,285,54,0.272971861109481,2
1018,286,54,0.39388975194999,2
1018,287,54,0.343474730472283,2
1018,288,54,0.24239666671346,2
1018,289,54,0.172510822704555,1
1018,290,54,0.167399438987777,1
1018,291,54,0.205730335765994,1
1018,292,54,0.24236962702853,1
1018,293,54,0.223051538675841,1
1018,294,54,0.17869154587763,1
1019,284,54,0.117331175560195,1
1019,285,54,0.244769045760097,2
1019,286,54,0.37406850876326,2
1019,287,54,0.322977754253357,2
1019,288,54,0.220722427835839,2
1019,289,54,0.167250049439285,1
1019,291,54,0.201897271997278,1
1019,292,54,0.212623947984314,1
1019,293,54,0.182811611877073,1
1019,294,54,0.143561283373166,1
1020,285,54,0.192509413720275,1
1020,286,54,0.27991823368864,2
1020,287,54,0.259405005394276,2
1020,288,54,0.210602967073107,1
1020,291,54,0.166172760598261,1
1020,292,54,0.150223609715029,1
1020,293,54,0.143620803655238,1
1020,294,54,0.125131147182658,1
1020,295,54,0.11960717273337,1
1021,285,54,0.152851346552756,1
1021,286,54,0.203130239233377,1
1021,287,54,0.198032552012059,1
1021,291,54,0.130437261383024,1
1021,292,54,0.129518736476036,1
1021,293,54,0.154164702677937,1
1021,294,54,0.142602481583572,1
1021,295,54,0.128024593676916,1
1022,285,54,0.129340658481336,1
1022,286,54,0.16526633053292,1
1022,291,54,0.116082450877042,1
1022,292,54,0.126888078975477,1
1022,293,54,0.150436841655511,1
1022,294,54,0.143807113679452,1
1022,295,54,0.132176551430187,1
1023,285,54,0.119249097114771,1
1023,291,54,0.123201001240905,1
1023,292,54,0.147048919877645,1
1023,293,54,0.152410020266574,1
1023,294,54,0.141936193598114,1
1023,295,54,0.136576683086131,1
1024,292,54,0.182220966703596,1
1024,293,54,0.17962574579361,1
1024,294,54,0.152698671258577,1
1008,285,55,0.143327182825673,1
1008,286,55,0.150672850055337,1
1008,287,55,0.143187226547054,1
1009,284,55,0.208111641677256,1
1009,285,55,0.306130711532821,4
1009,286,55,0.291809877285996,4
1009,287,55,0.25981950397912,4
1009,288,55,0.200221777234639,1
1010,280,55,0.120256808229938,1
1010,281,55,0.149139396076645,1
1010,282,55,0.166553412469478,1
1010,283,55,0.190293207697096,1
1010,284,55,0.297823875363446,4
1010,285,55,0.414357309557002,4
1010,286,55,0.346548186367307,4
1010,287,55,0.305196970914626,4
1010,288,55,0.266021201751003,4
1010,289,55,0.197374990684499,1
1011,279,55,0.118097802446178,1
1011,280,55,0.195287046511744,1
1011,281,55,0.267221099546647,1
1011,282,55,0.283751509440948,1
1011,283,55,0.250592046620562,1
1011,284,55,0.294541450753526,4
1011,285,55,0.367595825298763,4
1011,286,55,0.297631983104625,4
1011,287,55,0.282040613418335,4
1011,288,55,0.291530200266082,4
1011,289,55,0.24266760529861,1
1011,290,55,0.161717254117169,1
1012,280,55,0.162435136553706,1
1012,281,55,0.2139275293105,1
1012,282,55,0.221249089294932,1
1012,283,55,0.190727891830708,1
1012,284,55,0.197005668158623,1
1012,285,55,0.230018191018698,4
1012,286,55,0.205159958579348,4
1012,287,55,0.20719351718372,1
1012,288,55,0.237422942786382,1
1012,289,55,0.23307329855609,1
1012,290,55,0.182595200182702,1
1013,283,55,0.122780472900536,1
1013,284,55,0.150478461100869,1
1013,285,55,0.1793420881929,1
1013,286,55,0.16151181846215,1
1013,288,55,0.151631887382256,1
1013,289,55,0.177044998652255,1
1014,284,55,0.167207911811811,1
1014,285,55,0.258272494827365,2
1014,286,55,0.237662719783411,2
1014,287,55,0.157550104206423,1
1014,290,55,0.207821977874754,1
1014,291,55,0.219219275734031,1
1015,284,55,0.183625028252702,2
1015,285,55,0.342698729200759,2
1015,286,55,0.35656810905642,2
1015,287,55,0.24639189793056,2
1015,288,55,0.200680933696337,1
1015,289,55,0.193093440294915,1
1015,290,55,0.227529409425959,1
1015,291,55,0.246205611460078,1
1015,292,55,0.199114987343637,1
1016,284,55,0.166272369333078,2
1016,285,55,0.314581437454147,2
1016,286,55,0.367014778271286,2
1016,287,55,0.315526342541555,2
1016,288,55,0.281935328233982,2
1016,289,55,0.233491636399335,1
1016,290,55,0.226755104023175,1
1016,291,55,0.228037675419956,1
1016,292,55,0.214300314235056,1
1017,284,55,0.155730048410458,1
1017,285,55,0.289773492233722,2
1017,286,55,0.35022723227909,2
1017,287,55,0.313969181731084,2
1017,288,55,0.280494475754683,2
1017,289,55,0.218033745715223,1
1017,290,55,0.192074611818,1
1017,291,55,0.191491857144916,1
1017,292,55,0.20817792188056,1
1018,284,55,0.143990067296782,1
1018,285,55,0.290679086141559,2
1018,286,55,0.378787946594078,2
1018,287,55,0.322428457657314,2
1018,288,55,0.255425484516765,2
1018,289,55,0.190332518876668,1
1018,292,55,0.214865438939351,1
1018,293,55,0.200110839154481,1
1019,284,55,0.115960077459747,1
1019,285,55,0.246813698172485,2
1019,286,55,0.363136350013741,2
1019,287,55,0.312265870010342,2
1019,288,55,0.222529705731914,2
1019,289,55,0.169796761437151,1
1019,291,55,0.186611382444876,1
1019,292,55,0.213673643627693,1
1019,293,55,0.184649792270211,1
1019,294,55,0.142317116337255,1
1020,285,55,0.204225134489457,2
1020,286,55,0.309167776911105,2
1020,287,55,0.278263772409139,2
1020,288,55,0.201382410958176,1
1020,291,55,0.167413771434014,1
1020,292,55,0.157031521677583,1
1020,293,55,0.144924785394877,1
1020,294,55,0.126771982627897,1
1020,295,55,0.116969119360801,1
1021,285,55,0.167351919332423,1
1021,286,55,0.234033913983088,2
1021,287,55,0.218225873511369,1
1021,291,55,0.140267941608224,1
1021,292,55,0.129427689522989,1
1021,293,55,0.141718686655181,1
1021,294,55,0.13661779612624,1
1021,295,55,0.127384638764413,1
1022,285,55,0.138613256568265,1
1022,286,55,0.181203692773027,1
1022,291,55,0.121370346265306,1
1022,292,55,0.12845546210586,1
1022,293,55,0.144906755012635,1
1022,294,55,0.138174933382978,1
1022,295,55,0.130255473675454,1
1023,285,55,0.125040064899012,1
1023,291,55,0.122605763089586,1
1023,292,55,0.14450774300692,1
1023,293,55,0.158387404066825,1
1023,294,55,0.142746159351929,1
1023,295,55,0.132050656729881,1
1024,292,55,0.159104897866776,1
1024,293,55,0.169594505536022,1
1024,294,55,0.144659570366729,1
1008,285,56,0.156125598017492,4
1008,286,56,0.159876765458244,4
1008,287,56,0.13885842737004,1
1009,284,56,0.214960784448582,4
1009,285,56,0.335142644701649,4
1009,286,56,0.320033325705064,4
1009,287,56,0.234629682093388,4
1009,288,56,0.182187037551904,1
1010,280,56,0.139482365744431,1
1010,281,56,0.158112567338944,1
1010,282,56,0.172038440822048,1
1010,283,56,0.194225432679711,1
1010,284,56,0.272843893680713,4
1010,285,56,0.401319188029352,4
1010,286,56,0.371412778314436,4
1010,287,56,0.273698352435253,4
1010,288,56,0.217584788019705,1
1010,289,56,0.169332046294579,1
1011,279,56,0.139985049503822,1
1011,280,56,0.227220784868781,1
1011,281,56,0.264947575515386,1
1011,282,56,0.262182532193948,1
1011,283,56,0.242533937866573,1
1011,284,56,0.248109294783348,4
1011,285,56,0.304721161964038,4
1011,286,56,0.289585980969149,4
1011,287,56,0.258461018902436,1
1011,288,56,0.240017480638125,1
1011,289,56,0.18970992306503,1
1012,280,56,0.173749584158852,1
1012,281,56,0.205521838125748,1
1012,282,56,0.201379796493867,1
1012,283,56,0.187394296736894,1
1012,284,56,0.183963931133032,1
1012,285,56,0.205477156695163,4
1012,286,56,0.204602818590377,1
1012,287,56,0.20603613387527,1
1012,288,56,0.213467831112954,1
1012,289,56,0.186206058038847,1
1013,283,56,0.121589796391172,1
1013,284,56,0.153483622948458,1
1013,285,56,0.182086580882717,1
1013,286,56,0.174484660820128,1
1014,284,56,0.170656837756897,1
1014,285,56,0.249770939951266,1
1014,286,56,0.238113632438728,2
1014,287,56,0.170366620441681,1
1014,291,56,0.208838227217958,1
1015,284,56,0.177930772094178,1
1015,285,56,0.308777138257301,2
1015,286,56,0.325900183615477,2
1015,287,56,0.23538189409507,2
1015,288,56,0.186235971279144,1
1015,290,56,0.196057995507644,1
1015,291,56,0.227979921667823,1
1015,292,56,0.198966928581032,1
1016,284,56,0.155996017158046,1
1016,285,56,0.283235918236138,2
1016,286,56,0.336736172475127,2
1016,287,56,0.29537909214305,2
1016,288,56,0.24613433786548,2
1016,289,56,0.187946678871897,1
1016,290,56,0.183342736768479,1
1016,291,56,0.213683583302816,1
1017,284,56,0.152426743416661,1
1017,285,56,0.285914260268179,2
1017,286,56,0.349735665881448,2
1017,287,56,0.320226230774384,2
1017,288,56,0.27242586203599,2
1017,289,56,0.201787676479874,1
1018,284,56,0.144400302656041,1
1018,285,56,0.285574827428868,2
1018,286,56,0.354528944663709,2
1018,287,56,0.308750663861951,2
1018,288,56,0.262508327422132,2
1018,289,56,0.210115993653305,1
1019,284,56,0.115295756210954,1
1019,285,56,0.23945141378453,2
1019,286,56,0.341030135681747,2
1019,287,56,0.292368548267581,2
1019,288,56,0.223285992529321,2
1019,289,56,0.185825429721362,1
1019,292,56,0.19721211662414,1
1019,293,56,0.174334965073112,1
1020,285,56,0.219838621130581,2
1020,286,56,0.350466137788016,2
1020,287,56,0.29685185992991,2
1020,288,56,0.193318025134471,1
1020,292,56,0.15891305271542,1
1020,293,56,0.142634985734446,1
1020,294,56,0.125780535365034,1
1021,285,56,0.183177860640856,1
1021,286,56,0.277449331446145,2
1021,287,56,0.242595177571118,1
1021,288,56,0.168327326503442,1
1021,291,56,0.150337115152031,1
1021,292,56,0.130696446655648,1
1021,293,56,0.126444044010055,1
1021,294,56,0.125762081015607,1
1021,295,56,0.122591501304547,1
1022,285,56,0.146779323855249,1
1022,286,56,0.20031271819589,1
1022,287,56,0.189385953251117,1
1022,291,56,0.122427390673231,1
1022,292,56,0.12421828694834,1
1022,293,56,0.133198971851311,1
1022,294,56,0.127627018448885,1
1022,295,56,0.123377842664647,1
1023,285,56,0.131862026663014,1
1023,286,56,0.162505950850521,1
1023,291,56,0.117574191195445,1
1023,292,56,0.137271777286457,1
1023,293,56,0.160104482944224,1
1023,294,56,0.139889868870718,1
1023,295,56,0.123853274755515,1
1024,285,56,0.114930390712141,1
1024,292,56,0.131338627395874,1
1024,293,56,0.154700926952432,1
1024,294,56,0.131651844930893,1
1008,285,57,0.153721704076746,1
1008,286,57,0.156890882340721,1
1009,282,57,0.121470744050162,1
1009,284,57,0.217881188189706,1
1009,285,57,0.322123059961491,4
1009,286,57,0.313283509023765,4
1009,287,57,0.213796335020377,1
1010,279,57,0.119714777960377,1
1010,280,57,0.173187592100983,1
1010,281,57,0.191858753636343,1
1010,282,57,0.191679992583401,1
1010,283,57,0.19738014895192,1
1010,284,57,0.25147566489596,4
1010,285,57,0.367338288787415,4
1010,286,57,0.370159861066896,4
1010,287,57,0.245118960010379,4
1010,288,57,0.182294631002045,1
1011,279,57,0.156949201382435,1
1011,280,57,0.24973907175117,1
1011,281,57,0.260207881474603,1
1011,282,57,0.229855411173269,1
1011,283,57,0.212361441635405,1
1011,284,57,0.212647972791482,1
1011,285,57,0.257858019796253,4
1011,286,57,0.273444301876319,4
1011,287,57,0.222797535224371,1
1011,288,57,0.189460583252599,1
1012,259,57,0.118340111469452,1
1012,280,57,0.17314242781888,1
1012,281,57,0.187786737251236,1
1012,282,57,0.173688368008039,1
1012,283,57,0.170356527667298,1
1012,284,57,0.173250292136944,1
1012,285,57,0.189924415130202,1
1012,286,57,0.201977849316221,1
1012,287,57,0.193206545318465,1
1013,283,57,0.126707398293334,1
1013,284,57,0.169869766231089,1
1013,285,57,0.201557509405712,1
1013,286,57,0.206171143870061,1
1013,287,57,0.189035132182134,1
1014,284,57,0.191788869711963,1
1014,285,57,0.249545813375863,1
1014,286,57,0.24219850916179,1
1014,287,57,0.197705602650982,1
1015,284,57,0.184905244276231,1
1015,285,57,0.273178780649648,1
1015,286,57,0.283517361785991,2
1015,287,57,0.225991468461222,1
1015,288,57,0.1786404578318,1
1015,291,57,0.218772414320707,1
1016,284,57,0.153786147088914,1
1016,285,57,0.261759436496735,2
1016,286,57,0.32287805130361,2
1016,287,57,0.293022258559874,2
1016,288,57,0.223834558959656,1
1016,289,57,0.173513669973956,1
1017,284,57,0.149200353136401,1
1017,285,57,0.281514894108543,2
1017,286,57,0.370987303690239,2
1017,287,57,0.351826342287175,2
1017,288,57,0.272197532152965,2
1017,289,57,0.204565909891522,1
1017,290,57,0.184949643062027,1
1018,284,57,0.141762649696925,1
1018,285,57,0.268628552833236,2
1018,286,57,0.335477979191502,2
1018,287,57,0.309675454061789,2
1018,288,57,0.274765948915346,2
1018,289,57,0.245744264501256,1
1018,290,57,0.20140424526822,1
1019,284,57,0.116506441616091,1
1019,285,57,0.226534217119625,2
1019,286,57,0.309633952385093,2
1019,287,57,0.268688756173551,2
1019,288,57,0.22685534870877,1
1019,289,57,0.213472023677342,1
1020,285,57,0.220797517135105,2
1020,286,57,0.353361503911474,2
1020,287,57,0.289360524641491,2
1020,288,57,0.186555512991344,1
1020,293,57,0.134824108733828,1
1021,285,57,0.182522807785809,1
1021,286,57,0.286106929800173,2
1021,287,57,0.246338713602535,1
1021,288,57,0.165530026345321,1
1021,292,57,0.129260987981096,1
1021,293,57,0.11554476627113,1
1022,285,57,0.1534997337015,1
1022,286,57,0.212622864512618,1
1022,287,57,0.201236189386707,1
1022,292,57,0.114911959916446,1
1022,293,57,0.11884192374074,1
1022,294,57,0.113955007094855,1
1023,285,57,0.13922811497877,1
1023,286,57,0.177369274664691,1
1023,292,57,0.122130884511433,1
1023,293,57,0.14831932577158,1
1023,294,57,0.13024519247121,1
1024,285,57,0.117243002162515,1
1024,293,57,0.136424997048717,1
1008,285,58,0.140324918087184,1
1008,286,58,0.142952796247306,1
1009,281,58,0.13276790321564,1
1009,282,58,0.139838286196505,1
1009,284,58,0.208413035238551,1
1009,285,58,0.274998824668747,1
1009,286,58,0.272617259666428,4
1009,287,58,0.195079019946149,1
1010,279,58,0.133129935861302,1
1010,280,58,0.213643965924721,1
1010,281,58,0.247149150431,1
1010,282,58,0.210780114695372,1
1010,283,58,0.187699105589404,1
1010,284,58,0.228940466433623,1
1010,285,58,0.318902605221825,4
1010,286,58,0.334493456725999,4
1010,287,58,0.220645783990227,4
1011,260,58,0.124159496831976,1
1011,279,58,0.156878752168474,1
1011,280,58,0.248859292734173,1
1011,281,58,0.257940622736192,1
1011,282,58,0.203122796253901,1
1011,283,58,0.176240167612129,1
1011,284,58,0.187720515932263,1
1011,285,58,0.226149890866136,1
1011,286,58,0.24314586383738,4
1011,287,58,0.187001243825507,1
1012,280,58,0.153980642035178,1
1012,281,58,0.163717696173621,1
1012,282,58,0.151038486422074,1
1012,283,58,0.155235502465652,1
1012,284,58,0.16999196299539,1
1012,285,58,0.180242358957188,1
1012,286,58,0.189240402961025,1
1013,283,58,0.138660729116154,1
1013,284,58,0.185693269728206,1
1013,285,58,0.208038460230323,1
1013,286,58,0.218952270622211,1
1013,287,58,0.212189499388027,1
1014,283,58,0.122803767541996,1
1014,284,58,0.1956896740154,1
1014,285,58,0.225125091518028,1
1014,286,58,0.223488295537915,1
1014,287,58,0.210110128773909,1
1014,288,58,0.18265866571497,1
1015,284,58,0.176333699483957,1
1015,285,58,0.219920352582417,1
1015,286,58,0.227563067709726,1
1015,287,58,0.208391554234495,1
1015,288,58,0.176086432399987,1
1016,284,58,0.144430757632187,1
1016,285,58,0.223720535340538,1
1016,286,58,0.293638753954789,2
1016,287,58,0.284169399763276,2
1016,288,58,0.211266428610662,1
1016,289,58,0.171915372569643,1
1017,284,58,0.138843105667037,1
1017,285,58,0.257407837306644,2
1017,286,58,0.37407430298146,2
1017,287,58,0.367668912530765,2
1017,288,58,0.272760913881053,2
1017,289,58,0.224578644923619,1
1017,290,58,0.199863595624244,1
1018,284,58,0.133177455516656,1
1018,285,58,0.2385619777372,2
1018,286,58,0.314551382891454,2
1018,287,58,0.304066603737374,2
1018,288,58,0.27956057026036,2
1018,289,58,0.284318730427437,1
1018,290,58,0.230467996648586,1
1018,291,58,0.180973419707069,1
1019,284,58,0.117151519465417,1
1019,285,58,0.210557084402162,1
1019,286,58,0.280264332234253,2
1019,287,58,0.25095314889379,2
1019,288,58,0.227607749140312,1
1019,289,58,0.23352480005472,1
1019,290,58,0.190868908027291,1
1020,285,58,0.202590740990061,1
1020,286,58,0.31186804746812,2
1020,287,58,0.260007721855669,1
1020,288,58,0.178339311584696,1
1020,289,58,0.153194406666875,1
1021,285,58,0.168794349911801,1
1021,286,58,0.26291500616778,1
1021,287,58,0.235584903715639,1
1021,288,58,0.16246940723452,1
1022,285,58,0.147718682038649,1
1022,286,58,0.206716530546506,1
1022,287,58,0.200656225830926,1
1023,285,58,0.134759559729863,1
1023,286,58,0.175914242838417,1
1023,293,58,0.1191269945654,1
1009,280,59,0.11741013944846,1
1009,281,59,0.149125040076676,1
1009,282,59,0.142456154020307,1
1009,285,59,0.20988832327479,1
1009,286,59,0.209842581926241,1
1010,279,59,0.132827812134299,1
1010,280,59,0.225887832038145,1
1010,281,59,0.269220387470206,1
1010,282,59,0.201614603653335,1
1010,283,59,0.164477398262243,1
1010,284,59,0.195942287796651,1
1010,285,59,0.248692932721401,1
1010,286,59,0.260992267874904,4
1010,287,59,0.186523279708393,1
1011,259,59,0.143835778571926,1
1011,260,59,0.115678504364365,1
1011,279,59,0.137597525407176,1
1011,280,59,0.213965450819854,1
1011,281,59,0.231931578479765,1
1011,282,59,0.170227547428031,1
1011,283,59,0.144973400298793,1
1011,284,59,0.17067763570271,1
1011,285,59,0.200309891747987,1
1011,286,59,0.202683613357378,1
1012,280,59,0.119858597051129,1
1012,281,59,0.132993960163478,1
1012,282,59,0.133124506725957,1
1012,283,59,0.152589040410574,1
1012,284,59,0.183946324717975,1
1012,285,59,0.185204671100861,1
1013,283,59,0.161206573865589,1
1013,284,59,0.211582001518933,1
1013,285,59,0.216766696228171,1
1013,286,59,0.215446580181758,1
1013,287,59,0.223486952975161,1
1014,283,59,0.130576098859349,1
1014,284,59,0.191630576852579,1
1014,285,59,0.206844709958867,1
1014,286,59,0.207654322406694,1
1014,287,59,0.218037961833343,1
1014,288,59,0.20986128358986,1
1015,284,59,0.158886272121548,1
1015,285,59,0.181767922435486,1
1015,286,59,0.192410488043701,1
1015,287,59,0.201841708742269,1
1015,288,59,0.184917456886541,1
1016,284,59,0.127326720136152,1
1016,285,59,0.186519746648516,1
1016,286,59,0.257146649966756,2
1016,287,59,0.270335114969066,2
1016,288,59,0.210134459779599,1
1016,289,59,0.182489314378169,1
1016,290,59,0.190378024687892,1
1017,284,59,0.122900420283382,1
1017,285,59,0.223516088942286,2
1017,286,59,0.342250925638134,2
1017,287,59,0.345829726864323,2
1017,288,59,0.263952760068773,2
1017,289,59,0.241947614803012,1
1017,290,59,0.21297671223623,1
1017,291,59,0.197159862668549,1
1018,284,59,0.128571299362382,1
1018,285,59,0.219400545259486,1
1018,286,59,0.297464704496285,2
1018,287,59,0.291078015709209,2
1018,288,59,0.269726557182009,2
1018,289,59,0.294243142731191,1
1018,290,59,0.243421701598893,1
1018,291,59,0.176903511381022,1
1019,284,59,0.126871838676906,1
1019,285,59,0.204003540973932,1
1019,286,59,0.255198991824876,1
1019,287,59,0.235794838133568,2
1019,288,59,0.217961412202661,1
1019,289,59,0.227600471036964,1
1019,290,59,0.193873728345758,1
1020,285,59,0.178051932494249,1
1020,286,59,0.244495775355428,1
1020,287,59,0.220563322372682,1
1020,288,59,0.171524215733724,1
1020,289,59,0.150915029533083,1
1021,285,59,0.152711672918926,1
1021,286,59,0.219639026801227,1
1021,287,59,0.214021838455501,1
1021,288,59,0.16153193334972,1
1022,285,59,0.145337505672916,1
1022,286,59,0.196234660278392,1
1022,287,59,0.197839599835275,1
1023,285,59,0.131439555139712,1
1023,286,59,0.167426831978695,1
1009,280,60,0.115908200363877,1
1009,281,60,0.14325623898333,1
1010,279,60,0.119586975407736,1
1010,280,60,0.20673817642669,1
1010,281,60,0.241964761920285,1
1010,282,60,0.171328119133648,1
1010,285,60,0.182126174707079,1
1010,286,60,0.188350766706969,1
1011,280,60,0.170793025438314,1
1011,281,60,0.189554079793828,1
1011,282,60,0.141777971399927,1
1011,283,60,0.128051421378253,1
1012,282,60,0.119075423668053,1
1012,283,60,0.154207205388265,1
1012,284,60,0.198845980164554,1
1013,283,60,0.169502869739662,1
1013,284,60,0.224260104245052,1
1013,285,60,0.217664752941602,1
1013,286,60,0.201585514793675,1
1013,287,60,0.216326547628615,1
1013,288,60,0.237707377660265,1
1014,283,60,0.126344505936436,1
1014,284,60,0.178545913149474,1
1014,285,60,0.19783001346614,1
1014,286,60,0.207230732081098,1
1014,287,60,0.222156708823765,1
1014,288,60,0.233338254493181,1
1014,289,60,0.186276766343864,1
1015,284,60,0.140544851064567,1
1015,285,60,0.172151498738132,1
1015,286,60,0.196829309586397,1
1015,287,60,0.205217382579226,1
1015,288,60,0.195453995367829,1
1016,285,60,0.162119292777512,1
1016,286,60,0.225893767578739,1
1016,287,60,0.243029696828603,1
1016,288,60,0.206243029861705,1
1016,289,60,0.187687929343325,1
1016,290,60,0.188995455919708,1
1017,285,60,0.188093135980691,1
1017,286,60,0.289925720006983,2
1017,287,60,0.297992896947992,2
1017,288,60,0.247456338210495,1
1017,289,60,0.241748373779646,1
1017,290,60,0.213399242643863,1
1017,291,60,0.176577975243897,1
1018,284,60,0.122676930692388,1
1018,285,60,0.203712322625084,1
1018,286,60,0.278871364493163,1
1018,287,60,0.270615946121873,2
1018,288,60,0.248902443172145,1
1018,289,60,0.270372706726164,1
1018,290,60,0.229648727170427,1
1018,291,60,0.161981526996016,1
1019,284,60,0.132689233749032,1
1019,285,60,0.193220865987836,1
1019,286,60,0.229578937460977,1
1019,287,60,0.21524284039548,1
1019,288,60,0.199514223109811,1
1019,289,60,0.204403671781941,1
1019,290,60,0.182694820694385,1
1020,285,60,0.154860444605908,1
1020,286,60,0.188499579189015,1
1020,287,60,0.1837713793697,1
1021,285,60,0.141541963000101,1
1021,286,60,0.183553719327505,1
1021,287,60,0.189666395767338,1
1022,285,60,0.141260095483063,1
1022,286,60,0.181196120248023,1
1022,287,60,0.186076194534611,1
1023,285,60,0.12576795767187,1
1023,286,60,0.155215175594489,1
1010,280,61,0.155837794959859,1
1010,281,61,0.170018837804193,1
1011,280,61,0.125792088470834,1
1011,281,61,0.136204086591435,1
1011,282,61,0.114158664443069,1
1012,283,61,0.148862003768786,1
1013,283,61,0.156645629100881,1
1013,284,61,0.208107048699415,1
1014,284,61,0.151946211942703,1
1014,285,61,0.171631090795022,1
1014,286,61,0.188342381578192,1
1014,287,61,0.202432130155288,1
1014,288,61,0.225614655848406,1
1015,284,61,0.11520319004216,1
1015,285,61,0.154991532904235,1
1015,286,61,0.192854157926269,1
1015,287,61,0.193567518046163,1
1016,285,61,0.137851776172837,1
1016,286,61,0.188190460003454,1
1016,287,61,0.201047971510159,1
1016,288,61,0.19251600876538,1
1016,289,61,0.187844067036184,1
1017,285,61,0.163514168370936,1
1017,286,61,0.236721983706658,1
1017,287,61,0.24585760506213,1
1017,288,61,0.221998969477095,1
1017,289,61,0.222499250755769,1
1017,290,61,0.198134469012662,1
1018,284,61,0.123752641433333,1
1018,285,61,0.19748478640863,1
1018,286,61,0.261164210122283,1
1018,287,61,0.252496954737923,1
1018,288,61,0.227402030840504,1
1018,289,61,0.234266248000641,1
1018,290,61,0.203601313883729,1
1019,284,61,0.135679886497389,1
1019,285,61,0.183610954897523,1
1019,286,61,0.20549444513483,1
1019,287,61,0.195530921858231,1
1019,288,61,0.18480835599752,1
1019,289,61,0.185555657045972,1
1020,285,61,0.140710174713108,1
1020,286,61,0.151075159583604,1
1020,287,61,0.155168327220512,1
1021,285,61,0.141904372505483,1
1021,286,61,0.160001376480128,1
1021,287,61,0.164717740548853,1
1022,285,61,0.140867890506046,1
1022,286,61,0.166378573113,1
1022,287,61,0.169204785477786,1
1023,285,61,0.115468758376296,1
1023,286,61,0.1375217412728,1
1013,283,62,0.12688095397139,1
1014,284,62,0.121535210616063,1
1016,287,62,0.154348327576644,1
1017,285,62,0.139076652701816,1
1017,286,62,0.1850861251651,1
1017,287,62,0.192971431960474,1
1017,288,62,0.185412650558991,1
1017,289,62,0.185488293370972,1
1018,284,62,0.122702851575024,1
1018,285,62,0.177731648839475,1
1018,286,62,0.225029863777459,1
1018,287,62,0.217867903884566,1
1018,288,62,0.193016089837328,1
1018,289,62,0.187539293514272,1
1019,284,62,0.128882302846544,1
1019,285,62,0.163311205857832,1
1019,286,62,0.17702080896896,1
1020,285,62,0.13181806362127,1
1020,286,62,0.129879308790281,1
1021,285,62,0.142109289978386,1
1021,286,62,0.144611355876265,1
1022,285,62,0.131627113511749,1
1022,286,62,0.145926231217194,1
1017,285,63,0.120082133749587,1
1018,285,63,0.144743445208224,1
1018,286,63,0.177861076599659,1
1019,285,63,0.136000075937234,1
1019,286,63,0.148694583838051,1
1020,285,63,0.126264034609289,1
1020,286,63,0.124751472791341,1
1021,285,63,0.138363068821463,1
1021,286,63,0.137749800287902,1
1022,285,63,0.119829201992947,1
1022,286,63,0.129810084370412,1
1020,286,64,0.115199138800167,1
1021,285,64,0.119193686959024,1
