x,y,z,signal,mito.p
285,96,47,0.174702921482502,1
285,97,47,0.159178880140614,1
285,98,47,0.144956429834514,1
286,97,47,0.151217730326533,1
286,98,47,0.16959041896343,1
286,99,47,0.178991632206771,1
287,99,47,0.203818479297541,1
287,100,47,0.187842936457023,1
298,104,47,0.15051500471687,1
299,102,47,0.163336384797893,1
299,103,47,0.180977600494591,1
299,104,47,0.192435878967355,1
299,105,47,0.164644535548188,1
300,102,47,0.158004738351478,1
300,103,47,0.224806173979739,1
300,104,47,0.255575097825717,1
300,105,47,0.206833639704583,1
300,106,47,0.143893697200187,1
301,98,47,0.160319351869116,1
301,103,47,0.182208860085082,1
301,104,47,0.222011264525469,1
301,105,47,0.208948717777198,1
301,106,47,0.17121076266138,1
301,107,47,0.129645184689056,1
301,111,47,0.182766459371837,1
301,112,47,0.238017509656324,1
301,113,47,0.210535014554793,1
302,98,47,0.167346501973944,1
302,104,47,0.159900896257208,1
302,105,47,0.177463772239552,1
302,106,47,0.164956728495843,1
302,107,47,0.134577501154368,1
302,110,47,0.176376143309953,1
302,111,47,0.214491452774437,1
302,112,47,0.288157776844213,1
303,104,47,0.159327327539806,1
303,105,47,0.157080266127029,1
303,109,47,0.165275763802793,1
303,110,47,0.179425103323158,1
303,111,47,0.202835558485849,1
303,112,47,0.247049800787241,1
304,104,47,0.204843985257625,1
304,105,47,0.169005438462623,1
304,111,47,0.15789745109986,1
304,112,47,0.178242717727641,1
305,112,47,0.141576363226443,1
276,99,48,0.164818844945685,1
276,104,48,0.218517303843809,1
277,102,48,0.116439407693346,1
277,108,48,0.130750066727724,1
277,109,48,0.151391898401634,1
278,109,48,0.132866770007883,1
278,110,48,0.153924148407735,1
279,99,48,0.116645997481258,1
279,100,48,0.121491294681784,1
279,105,48,0.123515337578218,1
279,109,48,0.120294647301227,1
279,110,48,0.14120618098933,1
279,111,48,0.133844167469299,1
280,100,48,0.124112118499017,1
280,110,48,0.123112651190231,1
280,111,48,0.131543686191172,1
281,100,48,0.125182506096413,1
281,111,48,0.115391443249307,1
282,96,48,0.120603542726329,1
283,95,48,0.167513179962105,1
283,96,48,0.152185011459833,1
283,97,48,0.125498597186799,1
283,102,48,0.122852123354854,1
283,103,48,0.150021930880347,1
283,104,48,0.138291300598481,1
284,96,48,0.159568188008531,1
284,97,48,0.141194368792473,1
284,98,48,0.118185634314736,1
284,102,48,0.127734835659484,1
284,103,48,0.15708388162497,1
284,104,48,0.134600878233892,1
285,95,48,0.134449039097217,1
285,96,48,0.164805230888289,1
285,97,48,0.167592638478753,1
285,98,48,0.157488558303355,1
285,99,48,0.127918660764918,1
286,96,48,0.135810456613601,1
286,97,48,0.152334907413575,1
286,98,48,0.166644047232206,1
286,99,48,0.163355851957819,1
286,100,48,0.13609949624219,1
287,97,48,0.114997754387142,1
287,98,48,0.138733710356359,1
287,99,48,0.173260008051608,1
287,100,48,0.180165314698123,1
287,101,48,0.149525853942928,1
288,96,48,0.114627053967914,1
288,97,48,0.116333945855999,1
288,98,48,0.119610529140254,1
288,99,48,0.137522636314636,1
288,100,48,0.158127724165819,1
288,101,48,0.151072815987218,1
289,96,48,0.13282085200634,1
289,97,48,0.133112364776844,1
289,98,48,0.125738433068159,1
289,99,48,0.116803560174935,1
290,99,48,0.116053844868899,1
292,119,48,0.126461520879583,1
292,120,48,0.116628791479654,1
293,119,48,0.121011069406349,1
293,120,48,0.125995887141443,1
294,120,48,0.129276097700506,1
295,120,48,0.126558574034422,1
296,103,48,0.126844433909122,1
296,104,48,0.138254109254836,1
297,103,48,0.126397972909251,1
297,104,48,0.144726981149194,1
297,105,48,0.130079562624146,1
298,102,48,0.124964127665376,1
298,103,48,0.135996542877356,1
298,104,48,0.150522271043352,1
298,105,48,0.147245181353848,1
298,106,48,0.118131295853818,1
299,99,48,0.130351996871311,1
299,100,48,0.147650446875546,1
299,101,48,0.140003079886064,1
299,102,48,0.156414272563227,1
299,103,48,0.183762782257331,1
299,104,48,0.195880942100309,1
299,105,48,0.161223803420925,1
299,106,48,0.123449410680902,1
299,108,48,0.121634501375491,1
299,109,48,0.132011922616756,1
300,97,48,0.117340585276336,1
300,98,48,0.1197487659964,1
300,99,48,0.125555608996358,1
300,100,48,0.133748503984679,1
300,101,48,0.127236662439871,1
300,102,48,0.153756740253866,1
300,103,48,0.216888798777542,1
300,104,48,0.25142617850394,1
300,105,48,0.201008707438052,1
300,106,48,0.159238895051069,1
300,107,48,0.124860420581101,1
300,111,48,0.134301698723454,1
300,112,48,0.129019927305644,1
300,113,48,0.116200902597873,1
300,118,48,0.172471652847378,1
301,97,48,0.164673141556331,1
301,98,48,0.174591005922445,1
301,99,48,0.125766155811332,1
301,102,48,0.127686044102574,1
301,103,48,0.180784966293196,1
301,104,48,0.232397424201498,1
301,105,48,0.233544019900454,1
301,106,48,0.224308012536992,1
301,107,48,0.165561929876016,1
301,108,48,0.119802974911789,1
301,110,48,0.134097558523724,1
301,111,48,0.168061133995394,1
301,112,48,0.197743971681253,1
301,113,48,0.195272666958042,1
301,114,48,0.142610195430972,1
302,97,48,0.160354282054439,1
302,98,48,0.195930817128915,1
302,99,48,0.137562642329317,1
302,103,48,0.139784889884887,1
302,104,48,0.181905405572191,1
302,105,48,0.198690289992613,1
302,106,48,0.190396349491791,1
302,107,48,0.14624808119518,1
302,108,48,0.131977475282949,1
302,109,48,0.156915766859126,1
302,110,48,0.184733820210968,1
302,111,48,0.200261842133652,1
302,112,48,0.239823374328448,1
302,113,48,0.2437323753308,1
302,114,48,0.184297204671289,1
303,97,48,0.120059486835772,1
303,98,48,0.148356646660754,1
303,99,48,0.11971681535824,1
303,103,48,0.131143932242883,1
303,104,48,0.16828408185054,1
303,105,48,0.157592041627171,1
303,106,48,0.134370982027654,1
303,107,48,0.121925071996694,1
303,108,48,0.135416214238721,1
303,109,48,0.161098897977384,1
303,110,48,0.173903672676983,1
303,111,48,0.180944849029525,1
303,112,48,0.205644553072165,1
303,113,48,0.200501289378425,1
303,114,48,0.17848558026363,1
304,103,48,0.148571374263251,1
304,104,48,0.189967977758493,1
304,105,48,0.155077657127185,1
304,106,48,0.119505550154423,1
304,108,48,0.114733198863504,1
304,109,48,0.119629242580739,1
304,110,48,0.125081660790639,1
304,111,48,0.140802858650565,1
304,112,48,0.164189701196407,1
304,113,48,0.160818879428349,1
305,103,48,0.120920634850348,1
305,104,48,0.147528356103041,1
305,105,48,0.124140112110114,1
305,111,48,0.126052628083078,1
305,112,48,0.146580318369207,1
305,113,48,0.150342084989593,1
306,111,48,0.120731898791684,1
306,112,48,0.146495984229928,1
307,112,48,0.159075491031728,1
275,99,49,0.182595376835695,1
275,100,49,0.148798832658173,1
275,103,49,0.183484530238235,1
275,104,49,0.23475600076088,1
276,98,49,0.167430588799032,1
276,99,49,0.154242253342251,1
276,100,49,0.131600945314922,1
276,101,49,0.125471133534683,1
276,102,49,0.131149278940165,1
276,103,49,0.154979555831249,1
276,104,49,0.184878852318945,1
276,105,49,0.135615337493425,1
276,106,49,0.118559467380389,1
276,107,49,0.138300003702647,1
276,108,49,0.156680253087682,1
276,109,49,0.130855893647926,1
277,96,49,0.127573115732018,1
277,97,49,0.148133180623494,1
277,98,49,0.146638437204195,1
277,99,49,0.122342079054052,1
277,100,49,0.11450127703627,1
277,101,49,0.120938276596003,1
277,102,49,0.120578328455669,1
277,108,49,0.123984068632185,1
277,109,49,0.133111987917124,1
277,110,49,0.13960252511087,1
278,97,49,0.114506458857424,1
278,109,49,0.122715287945793,1
278,110,49,0.141515547489083,1
278,111,49,0.120355463038588,1
279,110,49,0.116037545685997,1
279,111,49,0.119217005154216,1
280,100,49,0.116117534161627,1
281,95,49,0.119823607981474,1
281,100,49,0.122095624573854,1
282,94,49,0.123064813559488,1
282,95,49,0.13959116043493,1
282,96,49,0.120274473529326,1
282,100,49,0.119994666963883,1
282,101,49,0.121768840088905,1
283,94,49,0.138654298947176,1
283,95,49,0.168729447601848,1
283,96,49,0.147287731171641,1
283,97,49,0.120472972610118,1
284,95,49,0.145427386716204,1
284,96,49,0.145719476553154,1
284,97,49,0.13725215702727,1
284,98,49,0.120554421417164,1
285,95,49,0.121806620275863,1
285,96,49,0.145778396215047,1
285,97,49,0.16401215316069,1
285,98,49,0.155633219016078,1
285,99,49,0.120813488921125,1
286,96,49,0.121319587971731,1
286,97,49,0.140182641765912,1
286,98,49,0.146566256790894,1
286,99,49,0.137433085023604,1
286,100,49,0.119799771604167,1
287,98,49,0.114552353305234,1
287,99,49,0.135661231941235,1
287,100,49,0.157426294011445,1
287,101,49,0.140089321877677,1
288,96,49,0.118910347333703,1
288,99,49,0.115805376544571,1
288,100,49,0.147549589792905,1
288,101,49,0.147035352927715,1
289,96,49,0.1308027446505,1
289,97,49,0.127190037826352,1
289,98,49,0.121298990232644,1
290,98,49,0.12555553833516,1
290,99,49,0.129262000791594,1
294,122,49,0.116435368228219,1
295,122,49,0.122880022751021,1
296,111,49,0.114980489501206,1
298,103,49,0.126007016280057,1
298,104,49,0.13516205768799,1
298,105,49,0.136954626278108,1
298,106,49,0.116830387876272,1
298,108,49,0.11476777574284,1
298,109,49,0.120064692210658,1
299,99,49,0.129448299038942,1
299,100,49,0.143870119913937,1
299,101,49,0.129791700682182,1
299,102,49,0.144066876018522,1
299,103,49,0.172756864994433,1
299,104,49,0.173695728549451,1
299,105,49,0.144403199765141,1
299,106,49,0.118754150756513,1
299,108,49,0.126003306567186,1
299,109,49,0.136380303841265,1
299,110,49,0.114089063163479,1
299,119,49,0.118993268249032,1
300,98,49,0.120079813706934,1
300,99,49,0.124072771988846,1
300,100,49,0.133027182703194,1
300,101,49,0.123444935471723,1
300,102,49,0.137848372658488,1
300,103,49,0.183262324325664,1
300,104,49,0.211458297315751,1
300,105,49,0.185741307565676,1
300,106,49,0.166206242229035,1
300,107,49,0.136353370148131,1
300,108,49,0.120761717817051,1
300,109,49,0.121507970724406,1
300,110,49,0.117864608717387,1
300,111,49,0.12625131559373,1
300,112,49,0.114341629837265,1
300,117,49,0.124998998966368,1
300,118,49,0.182436530463597,1
300,119,49,0.194247620295743,1
301,97,49,0.154752910040099,1
301,98,49,0.167177433281933,1
301,99,49,0.121796185972358,1
301,102,49,0.123447867911422,1
301,103,49,0.161059539690348,1
301,104,49,0.219957002190214,1
301,105,49,0.251768155146363,1
301,106,49,0.256547843424961,1
301,107,49,0.188366795021947,1
301,108,49,0.13242786975615,1
301,109,49,0.12594014723344,1
301,110,49,0.142482958167912,1
301,111,49,0.156863077159484,1
301,112,49,0.160639670854489,1
301,113,49,0.165459553577628,1
301,114,49,0.126139082058283,1
301,116,49,0.119081147225055,1
301,117,49,0.15509945610663,1
301,118,49,0.186744131281345,1
302,97,49,0.169165686281807,1
302,98,49,0.198521621714054,1
302,99,49,0.133525238154145,1
302,102,49,0.126201581887519,1
302,103,49,0.152035951663595,1
302,104,49,0.202672990624013,1
302,105,49,0.223443896752119,1
302,106,49,0.205014655603447,1
302,107,49,0.149184360152021,1
302,108,49,0.126647595366472,1
302,109,49,0.145705179437516,1
302,110,49,0.177576641725776,1
302,111,49,0.184159591989055,1
302,112,49,0.189672566845257,1
302,113,49,0.195373865569804,1
302,114,49,0.153574634570906,1
302,115,49,0.132686843045181,1
303,97,49,0.145189423356578,1
303,98,49,0.169872639786456,1
303,99,49,0.125463608117144,1
303,103,49,0.131320950319619,1
303,104,49,0.172135729514212,1
303,105,49,0.158741110468042,1
303,106,49,0.125341564452104,1
303,108,49,0.117878316989712,1
303,109,49,0.138047908103511,1
303,110,49,0.152464676702881,1
303,111,49,0.158184147132065,1
303,112,49,0.168655371113081,1
303,113,49,0.164278227900075,1
303,114,49,0.147994472692698,1
303,115,49,0.140067134261646,1
304,97,49,0.120715776261776,1
304,98,49,0.131138314677678,1
304,103,49,0.118789811107545,1
304,104,49,0.154882396684614,1
304,105,49,0.128991015098979,1
304,111,49,0.126434540078984,1
304,112,49,0.151054632505715,1
304,113,49,0.147563957569741,1
304,114,49,0.139668981967168,1
305,104,49,0.117687861508575,1
305,111,49,0.120861102791409,1
305,112,49,0.147887362094074,1
305,113,49,0.148423492153639,1
305,114,49,0.139423634512399,1
306,111,49,0.121782725014224,1
306,112,49,0.148884356260945,1
306,113,49,0.175137275863859,1
307,111,49,0.116539675932674,1
307,112,49,0.158575091984392,1
307,113,49,0.244664043220534,1
308,112,49,0.135260500513047,1
274,99,50,0.176198807257828,1
274,100,50,0.155824604869649,1
274,103,50,0.135417050396226,1
274,104,50,0.14157577438313,1
275,98,50,0.159756511876875,1
275,99,50,0.182888821012266,1
275,100,50,0.152883450290177,1
275,101,50,0.133989788420589,1
275,102,50,0.132836774329522,1
275,103,50,0.155940642332897,1
275,104,50,0.176083252646097,1
275,105,50,0.132606242172506,1
275,107,50,0.118556110973505,1
275,108,50,0.120686075005071,1
276,97,50,0.130733414238834,1
276,98,50,0.142205766066778,1
276,99,50,0.138839407731032,1
276,100,50,0.132189882842792,1
276,101,50,0.131275456285262,1
276,102,50,0.127341217458516,1
276,103,50,0.135336190432493,1
276,104,50,0.143152119708736,1
276,105,50,0.114872625183142,1
276,107,50,0.114175917552138,1
276,108,50,0.130504118652776,1
277,96,50,0.130855752325531,1
277,97,50,0.144686551167328,1
277,98,50,0.132512710300678,1
277,101,50,0.12029583676472,1
277,102,50,0.118075579499547,1
277,108,50,0.11966030995393,1
277,109,50,0.124945908853273,1
277,110,50,0.117530899435078,1
278,96,50,0.11425372730751,1
278,97,50,0.121006841511362,1
278,109,50,0.121402167357937,1
278,110,50,0.128473975339619,1
282,94,50,0.114350156288437,1
282,95,50,0.129528428836967,1
282,96,50,0.118499593792329,1
282,100,50,0.117085333477043,1
282,101,50,0.12530008632914,1
283,94,50,0.124042057921643,1
283,95,50,0.151734299011243,1
283,96,50,0.134515884590102,1
284,95,50,0.133225234263068,1
284,96,50,0.130503576916928,1
284,97,50,0.129435909775638,1
284,98,50,0.117162789926427,1
285,96,50,0.126324838569783,1
285,97,50,0.147419879387931,1
285,98,50,0.138910693102497,1
286,97,50,0.120323335747434,1
286,98,50,0.120417786214829,1
287,100,50,0.125358181610395,1
287,101,50,0.117940757934617,1
288,100,50,0.1254706389063,1
288,101,50,0.127641951515301,1
289,96,50,0.122765551610986,1
289,97,50,0.115660497535856,1
290,98,50,0.123632010992244,1
290,99,50,0.126191277129542,1
294,123,50,0.128980510134276,1
295,111,50,0.11510359308421,1
295,112,50,0.138518134819492,1
295,122,50,0.118284194908456,1
295,123,50,0.158206216979434,1
296,111,50,0.118905966339455,1
296,112,50,0.126243295547808,1
297,108,50,0.114730525514863,1
297,109,50,0.123155365884152,1
298,104,50,0.115108822012828,1
298,105,50,0.116693764450804,1
298,108,50,0.129307706809544,1
298,109,50,0.133112718082832,1
299,99,50,0.115624295448976,1
299,100,50,0.126220613303393,1
299,101,50,0.117552827960052,1
299,102,50,0.128531941075345,1
299,103,50,0.151305467980161,1
299,104,50,0.141490816069939,1
299,105,50,0.122095530358924,1
299,108,50,0.120151393500055,1
299,109,50,0.127284429409417,1
300,99,50,0.114087131757413,1
300,100,50,0.120682506614595,1
300,101,50,0.115739284771127,1
300,102,50,0.12326513805455,1
300,103,50,0.149227604804924,1
300,104,50,0.163812558831335,1
300,105,50,0.163626201699656,1
300,106,50,0.156893956102814,1
300,107,50,0.132989190532643,1
300,108,50,0.120901815418066,1
300,109,50,0.128192696665894,1
300,110,50,0.121155677547141,1
300,117,50,0.117556890978911,1
300,118,50,0.164910669171904,1
300,119,50,0.172600892177702,1
300,120,50,0.15096065311297,1
301,97,50,0.131434950385005,1
301,98,50,0.140658650923226,1
301,102,50,0.116742779768173,1
301,103,50,0.141627109743152,1
301,104,50,0.193543104602409,1
301,105,50,0.245240756361227,1
301,106,50,0.242313145177953,1
301,107,50,0.176380006122086,1
301,108,50,0.13090631041238,1
301,109,50,0.135100476454323,1
301,110,50,0.145373801974726,1
301,111,50,0.140180121516533,1
301,112,50,0.127531543394125,1
301,113,50,0.126930087057422,1
301,117,50,0.133231664432046,1
301,118,50,0.166901477751757,1
301,119,50,0.173009184354028,1
302,96,50,0.123632540951226,1
302,97,50,0.163347914349961,1
302,98,50,0.174515775300784,1
302,99,50,0.123238369237544,1
302,102,50,0.130104541357481,1
302,103,50,0.153733516273604,1
302,104,50,0.201650052020774,1
302,105,50,0.229189240956474,1
302,106,50,0.195643002294416,1
302,107,50,0.137023838921111,1
302,109,50,0.126347827012721,1
302,110,50,0.151541794355376,1
302,111,50,0.155372561635172,1
302,112,50,0.144785865480488,1
302,113,50,0.143115905844991,1
302,114,50,0.124406905238341,1
302,117,50,0.114238664695565,1
302,118,50,0.118282251725523,1
303,96,50,0.131124653512818,1
303,97,50,0.173620356605395,1
303,98,50,0.179999307991339,1
303,99,50,0.127908473775604,1
303,103,50,0.131808229937943,1
303,104,50,0.162243432724746,1
303,105,50,0.152578382346609,1
303,106,50,0.115800088731621,1
303,110,50,0.123377006507143,1
303,111,50,0.130926366415618,1
303,112,50,0.135582091399976,1
303,113,50,0.132233998983798,1
303,114,50,0.121354906793641,1
304,96,50,0.115276512811488,1
304,97,50,0.142511552399188,1
304,98,50,0.143465820095272,1
304,104,50,0.119398957737915,1
304,112,50,0.133266394410643,1
304,113,50,0.133981568167941,1
304,114,50,0.123366324889446,1
304,115,50,0.114801339811678,1
305,112,50,0.139500843647591,1
305,113,50,0.142836181717612,1
305,114,50,0.132802173896453,1
306,111,50,0.119598151653816,1
306,112,50,0.145093335904773,1
306,113,50,0.167038006962295,1
306,114,50,0.185050700351393,1
307,111,50,0.122242164120712,1
307,112,50,0.157079901044175,1
307,113,50,0.222620929337955,1
307,114,50,0.283181155808035,1
308,111,50,0.120611857193908,1
308,112,50,0.150425724293763,1
308,113,50,0.199258358913472,1
309,111,50,0.121679995409849,1
309,112,50,0.133084276950817,1
310,111,50,0.124713610166319,1
311,110,50,0.123259520489345,1
274,98,51,0.172099821848989,1
274,99,51,0.193052480354067,1
274,100,51,0.166417307226125,1
274,101,51,0.14584943427232,1
275,97,51,0.124452151958507,1
275,98,51,0.1506392859865,1
275,99,51,0.171748965449407,1
275,100,51,0.159730767647234,1
275,101,51,0.147608285694339,1
275,102,51,0.136177906617741,1
275,103,51,0.132413113342728,1
275,104,51,0.123361696581006,1
276,97,51,0.12203935470687,1
276,98,51,0.126061566724568,1
276,99,51,0.13083815768734,1
276,100,51,0.13981859527612,1
276,101,51,0.139542757514606,1
276,102,51,0.127338391010614,1
276,103,51,0.125452278771803,1
276,104,51,0.120385541155013,1
277,96,51,0.135186435801146,1
277,97,51,0.145344630677003,1
277,98,51,0.127044911503445,1
277,101,51,0.116555056520008,1
277,103,51,0.118047079483201,1
277,108,51,0.121125929182971,1
277,109,51,0.122000302618355,1
278,96,51,0.124122859001045,1
278,97,51,0.138728045683689,1
278,98,51,0.1192367314052,1
278,109,51,0.133743416378455,1
278,110,51,0.128377558135558,1
279,97,51,0.123494975376457,1
282,95,51,0.116576195994942,1
282,101,51,0.117721390246814,1
283,95,51,0.128716060602435,1
283,96,51,0.119808604253861,1
284,95,51,0.119231149170593,1
284,96,51,0.117448532032464,1
284,97,51,0.118848577670176,1
285,97,51,0.126973402371522,1
285,98,51,0.114574941334718,1
289,95,51,0.120488930263899,1
289,96,51,0.128547074348487,1
290,99,51,0.117029028279459,1
294,123,51,0.123855677236231,1
294,124,51,0.126926200691556,1
295,111,51,0.130037118798149,1
295,112,51,0.182864913973761,1
295,113,51,0.13212479210298,1
295,123,51,0.153702260470553,1
295,124,51,0.145948807469812,1
296,111,51,0.119926785106768,1
296,112,51,0.148936103811286,1
296,123,51,0.138756180617181,1
297,109,51,0.122919180831332,1
298,108,51,0.129697744843169,1
298,109,51,0.133580389218835,1
298,110,51,0.115445393073639,1
299,103,51,0.12105242976065,1
300,103,51,0.12345281419525,1
300,104,51,0.129504875104449,1
300,105,51,0.139263999090261,1
300,106,51,0.137426584193429,1
300,107,51,0.118421795813823,1
300,109,51,0.122180406234051,1
300,118,51,0.126003966071696,1
300,119,51,0.132498307193244,1
300,120,51,0.12362673495616,1
300,121,51,0.12954488111913,1
301,103,51,0.126442136157721,1
301,104,51,0.164763069707083,1
301,105,51,0.209433453592411,1
301,106,51,0.198583544476843,1
301,107,51,0.146070780473654,1
301,108,51,0.11688645753653,1
301,109,51,0.12836489800433,1
301,110,51,0.131591417830119,1
301,111,51,0.118486780561839,1
301,118,51,0.133958061542888,1
301,119,51,0.146891686936224,1
301,120,51,0.144314025333829,1
302,96,51,0.133920870199243,1
302,97,51,0.147635348933002,1
302,98,51,0.14415587379684,1
302,99,51,0.116616661307407,1
302,102,51,0.119956168388083,1
302,103,51,0.144045077039077,1
302,104,51,0.182265612803583,1
302,105,51,0.207404747056938,1
302,106,51,0.172281903978216,1
302,107,51,0.119235824586498,1
302,110,51,0.118522252483011,1
302,111,51,0.121790992374338,1
302,119,51,0.114556663638285,1
303,96,51,0.162239405036485,1
303,97,51,0.190946729559529,1
303,98,51,0.178360156637974,1
303,99,51,0.133261141928291,1
303,102,51,0.113846094635694,1
303,103,51,0.132396225316513,1
303,104,51,0.147165734614066,1
303,105,51,0.140138148765186,1
304,96,51,0.135688401171695,1
304,97,51,0.161772605388585,1
304,98,51,0.148180358749726,1
304,112,51,0.115415962684858,1
304,113,51,0.120671236153585,1
305,97,51,0.113779837986122,1
305,112,51,0.126767083451534,1
305,113,51,0.136137771057531,1
305,114,51,0.133110044734191,1
305,115,51,0.128539737360808,1
306,111,51,0.118016683391387,1
306,112,51,0.140831064245255,1
306,113,51,0.160281194822437,1
306,114,51,0.182205279917739,1
306,115,51,0.172779311701523,1
307,111,51,0.132573902897759,1
307,112,51,0.163907268389789,1
307,113,51,0.200896497456338,1
307,114,51,0.247612075489901,1
308,110,51,0.11539694304585,1
308,111,51,0.141478497467832,1
308,112,51,0.180381102218583,1
308,113,51,0.209068088093598,1
309,110,51,0.122882719653395,1
309,111,51,0.150877685090176,1
309,112,51,0.174866643477232,1
309,113,51,0.172782055711361,1
310,110,51,0.144092455372036,1
310,111,51,0.16070076923664,1
310,112,51,0.153010534453976,1
311,109,51,0.130796550018848,1
311,110,51,0.15361541785876,1
311,111,51,0.155826442060786,1
312,109,51,0.124039467011066,1
312,110,51,0.131560444671858,1
274,99,52,0.186634217788551,1
274,100,52,0.161403188647779,1
274,102,52,0.121512316388056,1
275,97,52,0.128722785193069,1
275,98,52,0.137657128127312,1
275,99,52,0.149653526950039,1
275,100,52,0.1534006078182,1
275,101,52,0.149254797589115,1
275,102,52,0.132968757669684,1
276,95,52,0.12638673777884,1
276,96,52,0.126307326369657,1
276,97,52,0.115857618723295,1
276,99,52,0.121645383199914,1
276,100,52,0.13697803868823,1
276,101,52,0.134596367694115,1
276,102,52,0.118253633940514,1
277,95,52,0.120322334713802,1
277,96,52,0.136344231299914,1
277,97,52,0.140055216072992,1
277,98,52,0.119358574863513,1
277,103,52,0.115099047213834,1
277,104,52,0.120805775073726,1
278,95,52,0.116833343869703,1
278,96,52,0.130959588955334,1
278,97,52,0.150676300677151,1
278,98,52,0.127801857805363,1
278,109,52,0.126444550415304,1
278,110,52,0.11776326878323,1
279,97,52,0.133220358640437,1
279,98,52,0.12534765309196,1
289,95,52,0.129770702529643,1
289,96,52,0.141846924951873,1
294,112,52,0.114132307816382,1
294,124,52,0.117022668771679,1
294,125,52,0.164841279875908,1
295,111,52,0.129684342769367,1
295,112,52,0.193536745094629,1
295,113,52,0.144469915712497,1
295,123,52,0.128732418669668,1
295,124,52,0.1321068794894,1
296,112,52,0.147347380999242,1
296,113,52,0.116033635766399,1
296,123,52,0.129017677924189,1
296,124,52,0.136677587276236,1
298,108,52,0.117054607632973,1
298,109,52,0.123036902386455,1
298,111,52,0.117933338508873,1
298,112,52,0.114345563310596,1
301,104,52,0.132114911312189,1
301,105,52,0.15670119235589,1
301,106,52,0.14682578359264,1
301,107,52,0.114275267195897,1
301,119,52,0.118555887213046,1
301,120,52,0.123322632715626,1
301,121,52,0.144359849120442,1
302,96,52,0.133251084484506,1
302,97,52,0.128594829541167,1
302,98,52,0.120338245260118,1
302,103,52,0.125266993334953,1
302,104,52,0.147549106941389,1
302,105,52,0.161835658730535,1
302,106,52,0.13790597331136,1
302,120,52,0.117993765609647,1
303,96,52,0.178603714009072,1
303,97,52,0.185072487553972,1
303,98,52,0.164356237862173,1
303,99,52,0.135171196536207,1
303,103,52,0.121357674357212,1
303,104,52,0.122638055256868,1
303,105,52,0.117025601211378,1
304,96,52,0.153805178504788,1
304,97,52,0.169371345697284,1
304,98,52,0.145794766059147,1
305,97,52,0.124192943132151,1
305,113,52,0.125108076301657,1
305,114,52,0.134574215408682,1
305,115,52,0.131841405370194,1
306,111,52,0.11376882661617,1
306,112,52,0.133093757328155,1
306,113,52,0.156034551064445,1
306,114,52,0.1909109985473,1
306,115,52,0.199589500838937,1
306,116,52,0.1493870871278,1
307,108,52,0.130048236159897,1
307,109,52,0.129907879467825,1
307,110,52,0.124559827846711,1
307,111,52,0.138030395903384,1
307,112,52,0.16649416305533,1
307,113,52,0.187311811565618,1
307,114,52,0.221724191633545,1
307,115,52,0.227936747676118,1
308,110,52,0.124393291180946,1
308,111,52,0.154938360353076,1
308,112,52,0.202029691081492,1
308,113,52,0.213426329436258,1
308,114,52,0.208434987317257,1
309,110,52,0.131518295267518,1
309,111,52,0.173326877098225,1
309,112,52,0.214997975792227,1
309,113,52,0.201830285181998,1
310,109,52,0.116683966098076,1
310,110,52,0.171787204934149,1
310,111,52,0.192007377688529,1
310,112,52,0.181688829001692,1
311,109,52,0.152775986385566,1
311,110,52,0.188777890092443,1
311,111,52,0.180320628010344,1
312,109,52,0.134711651437922,1
312,110,52,0.144651679866335,1
274,101,53,0.119496835273391,1
275,97,53,0.141950172738364,1
275,98,53,0.129944199323367,1
275,99,53,0.128757126535079,1
275,100,53,0.136095115247942,1
275,101,53,0.13416254327174,1
275,102,53,0.121448191351277,1
276,96,53,0.155842965004147,1
276,97,53,0.121045822938679,1
276,99,53,0.11530348183522,1
276,100,53,0.127593277727054,1
276,101,53,0.122526728540124,1
277,95,53,0.135353973500543,1
277,96,53,0.139786609307361,1
277,97,53,0.132477933214616,1
277,98,53,0.116393466138071,1
277,104,53,0.116857321569406,1
278,94,53,0.113980527564038,1
278,95,53,0.130536139952133,1
278,96,53,0.139217621790933,1
278,97,53,0.151597392940984,1
278,98,53,0.132374838527387,1
279,93,53,0.12035847791635,1
279,94,53,0.120827138309119,1
279,95,53,0.119582288214965,1
279,96,53,0.120585453459756,1
279,97,53,0.138304314035697,1
279,98,53,0.13105356834808,1
282,93,53,0.118690732331709,1
283,93,53,0.114503726624451,1
284,93,53,0.117441418805244,1
284,94,53,0.117244957122314,1
288,96,53,0.121155442009815,1
289,95,53,0.127302530452856,1
289,96,53,0.144001938377971,1
293,125,53,0.119950067971361,1
294,125,53,0.149726755504437,1
295,111,53,0.117925118256225,1
295,112,53,0.169821893269747,1
295,113,53,0.138020079368541,1
295,124,53,0.115860174303274,1
295,125,53,0.145793364612062,1
296,112,53,0.135238689756736,1
296,113,53,0.113940439111293,1
296,124,53,0.125073711405914,1
297,124,53,0.129158647013307,1
298,112,53,0.120585983418738,1
301,121,53,0.119841956339106,1
301,122,53,0.152134359158054,1
302,96,53,0.123049220988561,1
302,121,53,0.144450048139119,1
302,122,53,0.213374464117255,1
303,95,53,0.121764058681204,1
303,96,53,0.169213947879735,1
303,97,53,0.157442051458499,1
303,98,53,0.141236965717731,1
303,99,53,0.132437726993209,1
303,121,53,0.138142664769429,1
304,96,53,0.15923951922498,1
304,97,53,0.162440000399471,1
304,98,53,0.140223330838836,1
304,99,53,0.120002969654596,1
305,97,53,0.131781001823153,1
305,98,53,0.113840971698871,1
305,114,53,0.127587259748395,1
305,115,53,0.125766108703867,1
306,108,53,0.128191024350885,1
306,109,53,0.135790859908146,1
306,110,53,0.11430204778977,1
306,112,53,0.121885113089478,1
306,113,53,0.146482181742673,1
306,114,53,0.191666708278261,1
306,115,53,0.204704688483516,1
306,116,53,0.146274296499473,1
306,117,53,0.12581530067423,1
307,108,53,0.149676279855651,1
307,109,53,0.158139029957427,1
307,110,53,0.137642501259418,1
307,111,53,0.138997394391894,1
307,112,53,0.162187374841354,1
307,113,53,0.179509319693775,1
307,114,53,0.206107242593741,1
307,115,53,0.225399563163055,1
307,116,53,0.165990808014563,1
307,117,53,0.126259194317257,1
308,108,53,0.114876758863199,1
308,109,53,0.12490990697312,1
308,110,53,0.133786284171637,1
308,111,53,0.162194287861848,1
308,112,53,0.207192622141884,1
308,113,53,0.209101840592295,1
308,114,53,0.186149917717391,1
308,115,53,0.185047402828841,1
309,110,53,0.135080644211543,1
309,111,53,0.182283796285086,1
309,112,53,0.231495834428189,1
309,113,53,0.208141719793681,1
309,114,53,0.154387356111426,1
310,109,53,0.118122734072047,1
310,110,53,0.177882428058186,1
310,111,53,0.201578142475397,1
310,112,53,0.199889174977758,1
310,113,53,0.156237077833498,1
311,109,53,0.15539466681314,1
311,110,53,0.202485432251975,1
311,111,53,0.190953324604634,1
311,112,53,0.158443991909199,1
312,108,53,0.11593072950903,1
312,109,53,0.139483001695209,1
312,110,53,0.155874621220651,1
312,111,53,0.153350603244065,1
313,106,53,0.121463878137133,1
275,97,54,0.158524840096065,1
275,98,54,0.123213154966884,1
275,100,54,0.114985082479047,1
276,96,54,0.182810822827034,1
276,97,54,0.12794988123737,1
277,95,54,0.14131638890378,1
277,96,54,0.138007289691784,1
277,97,54,0.119979886996729,1
278,94,54,0.125458673610181,1
278,95,54,0.131565249633292,1
278,96,54,0.136351721386855,1
278,97,54,0.133548320812012,1
278,98,54,0.123280165335896,1
279,94,54,0.135757083855716,1
279,95,54,0.127104961744499,1
279,96,54,0.127782166884978,1
279,97,54,0.126997226971963,1
279,98,54,0.118188248779045,1
280,94,54,0.120330613850782,1
282,93,54,0.122857446498403,1
282,94,54,0.119229041111533,1
283,93,54,0.132854227645317,1
283,94,54,0.125668725796773,1
284,93,54,0.1325631035114,1
284,94,54,0.126034444601574,1
288,96,54,0.133452551335596,1
288,97,54,0.122339853226329,1
289,96,54,0.132281106448833,1
294,125,54,0.127255823401274,1
295,112,54,0.129791300268729,1
295,113,54,0.118848283248519,1
295,125,54,0.135109662410005,1
296,112,54,0.122955182711485,1
296,113,54,0.114706312277835,1
296,124,54,0.116187288540478,1
296,125,54,0.14022926637943,1
297,112,54,0.12946807239739,1
297,113,54,0.123280224220228,1
297,124,54,0.124967590064056,1
297,125,54,0.167752344562089,1
298,112,54,0.118357553008382,1
298,124,54,0.135174093645307,1
301,122,54,0.123126653884213,1
301,123,54,0.134403344856133,1
302,94,54,0.115284261989486,1
302,95,54,0.120898141035793,1
302,121,54,0.1214889157548,1
302,122,54,0.178146583168371,1
302,123,54,0.210071806851102,1
303,95,54,0.129401250458238,1
303,96,54,0.138018147962475,1
303,97,54,0.118923384324652,1
303,99,54,0.121271090836477,1
303,121,54,0.126926082922894,1
303,122,54,0.205560819553065,1
304,96,54,0.140955639936541,1
304,97,54,0.136821641904314,1
304,98,54,0.125323345640002,1
304,99,54,0.120814136648769,1
304,121,54,0.124513874514569,1
305,96,54,0.114123616489083,1
305,97,54,0.126993587920289,1
305,114,54,0.115151265838825,1
306,108,54,0.13365589070842,1
306,109,54,0.155359465759892,1
306,110,54,0.126547421342075,1
306,113,54,0.139093446513101,1
306,114,54,0.184799217149303,1
306,115,54,0.187387525038795,1
306,116,54,0.134041076673146,1
307,97,54,0.113883144656944,1
307,98,54,0.118201874613307,1
307,108,54,0.154932672126673,1
307,109,54,0.177008914334038,1
307,110,54,0.149697348669388,1
307,111,54,0.142051783540444,1
307,112,54,0.157533392833202,1
307,113,54,0.181636928352089,1
307,114,54,0.206543551934897,1
307,115,54,0.209619104112114,1
307,116,54,0.160912222870316,1
307,117,54,0.116260999946392,1
308,108,54,0.120864459198293,1
308,109,54,0.13504155679243,1
308,110,54,0.140577060793785,1
308,111,54,0.169060401097453,1
308,112,54,0.205237356144401,1
308,113,54,0.204167427844789,1
308,114,54,0.178255860710386,1
308,115,54,0.170945194327244,1
308,116,54,0.14856967839451,1
309,110,54,0.138411212650729,1
309,111,54,0.191170089604994,1
309,112,54,0.23430720794149,1
309,113,54,0.201140655447616,1
309,114,54,0.147212418111916,1
309,115,54,0.126460119432498,1
310,109,54,0.114490889840229,1
310,110,54,0.172804820393839,1
310,111,54,0.208997497557242,1
310,112,54,0.219660602020213,1
310,113,54,0.165213087320564,1
310,114,54,0.117551238083107,1
311,109,54,0.148862710380761,1
311,110,54,0.204589793376295,1
311,111,54,0.203614056453021,1
311,112,54,0.185007455698491,1
311,113,54,0.136630503364933,1
312,108,54,0.119893091492401,1
312,109,54,0.144216854410328,1
312,110,54,0.169233473923992,1
312,111,54,0.16428922749316,1
312,112,54,0.152932194739622,1
313,106,54,0.133032329193749,1
313,107,54,0.130563462281854,1
313,108,54,0.12228564431094,1
313,109,54,0.121121795502914,1
313,110,54,0.131520850847496,1
313,111,54,0.139000821459975,1
314,106,54,0.204438861058322,1
276,96,55,0.195275269645485,1
276,97,55,0.138286542744513,1
277,95,55,0.136506964037879,1
277,96,55,0.129635975179642,1
278,94,55,0.134909632336599,1
278,95,55,0.125000506405249,1
278,96,55,0.122069715468085,1
279,93,55,0.178432172175147,1
279,94,55,0.151011906034928,1
279,95,55,0.130383488211687,1
279,96,55,0.123522026838253,1
280,93,55,0.15360858727633,1
280,94,55,0.134520159592554,1
280,95,55,0.116048133088764,1
281,93,55,0.117335485893246,1
281,94,55,0.119849034235727,1
282,93,55,0.127194265721339,1
282,94,55,0.140105267754592,1
282,95,55,0.126696622460707,1
283,93,55,0.147708483272469,1
283,94,55,0.14965774306816,1
283,95,55,0.123794119556297,1
284,93,55,0.140068512154998,1
284,94,55,0.135695078654863,1
284,95,55,0.117513752317805,1
285,93,55,0.11579820443302,1
285,94,55,0.126523408311773,1
285,95,55,0.123819640025479,1
286,94,55,0.118073600986016,1
286,95,55,0.121463807475936,1
287,95,55,0.114582172330601,1
287,96,55,0.128916432204962,1
287,97,55,0.129545929260227,1
288,96,55,0.143966513564265,1
288,97,55,0.142191410066809,1
295,125,55,0.126865502722859,1
296,124,55,0.119779703824062,1
296,125,55,0.151838100310448,1
296,126,55,0.174168181093155,1
297,112,55,0.132043873254916,1
297,113,55,0.134404569650224,1
297,124,55,0.134564899907472,1
297,125,55,0.172511258448606,1
297,126,55,0.2110622648572,1
298,124,55,0.132273416155166,1
298,125,55,0.1898984824707,1
299,124,55,0.118259051298993,1
300,124,55,0.113826686360099,1
301,123,55,0.114696890784828,1
301,124,55,0.127593301280786,1
302,93,55,0.113831102684946,1
302,94,55,0.153736354498372,1
302,95,55,0.13059935817021,1
302,122,55,0.140385616055882,1
302,123,55,0.169235228677065,1
302,124,55,0.190189194414298,1
303,94,55,0.137624388439112,1
303,95,55,0.134881462072508,1
303,100,55,0.117136869043791,1
303,122,55,0.177173119180285,1
303,123,55,0.249481181933835,1
304,121,55,0.120260623934606,1
304,122,55,0.185042173900222,1
305,121,55,0.131521946096058,1
306,108,55,0.123165658865262,1
306,109,55,0.153752924549198,1
306,110,55,0.133061900904925,1
306,113,55,0.131453993577745,1
306,114,55,0.15910605199967,1
306,115,55,0.150009659385705,1
307,108,55,0.145172087809445,1
307,109,55,0.175785933880527,1
307,110,55,0.151600160504555,1
307,111,55,0.13828085451811,1
307,112,55,0.14998729511668,1
307,113,55,0.181129675168591,1
307,114,55,0.199742199686848,1
307,115,55,0.182056773634216,1
307,116,55,0.140661065180809,1
308,97,55,0.116214646200797,1
308,98,55,0.116687887794541,1
308,108,55,0.120808083339512,1
308,109,55,0.138856637286369,1
308,110,55,0.138375870275086,1
308,111,55,0.160433728794221,1
308,112,55,0.186545220010234,1
308,113,55,0.191197718133237,1
308,114,55,0.174460753781622,1
308,115,55,0.156172552383266,1
308,116,55,0.133295000418785,1
309,110,55,0.132836762552656,1
309,111,55,0.180495961995205,1
309,112,55,0.207985040364974,1
309,113,55,0.178162046193769,1
309,114,55,0.139840017395845,1
309,115,55,0.118737757358681,1
310,110,55,0.153252478394397,1
310,111,55,0.200089169720565,1
310,112,55,0.213236509905899,1
310,113,55,0.161210483785187,1
310,114,55,0.11702043116709,1
311,109,55,0.130672904699997,1
311,110,55,0.180049995623716,1
311,111,55,0.199642496737101,1
311,112,55,0.194917818200798,1
311,113,55,0.14780064902781,1
312,109,55,0.140429402444632,1
312,110,55,0.169732636400372,1
312,111,55,0.166950139763138,1
312,112,55,0.161349474360773,1
312,113,55,0.143560447215661,1
313,106,55,0.135043676628357,1
313,107,55,0.147163214364687,1
313,108,55,0.138397563262735,1
313,109,55,0.143256085884069,1
313,110,55,0.148990689586396,1
313,111,55,0.14476089852402,1
313,112,55,0.155580623531366,1
314,105,55,0.144029625790546,1
314,106,55,0.208132981358917,1
314,107,55,0.185974795716122,1
314,109,55,0.14610236602896,1
314,110,55,0.138444635397171,1
315,106,55,0.164193045826425,1
275,97,56,0.165788870088823,1
276,96,56,0.180049783640124,1
276,97,56,0.138183012313232,1
277,95,56,0.123291694887964,1
278,94,56,0.145924087827535,1
278,95,56,0.11647934304683,1
279,93,56,0.201633988375197,1
279,94,56,0.168970272739975,1
279,95,56,0.129174887311878,1
280,92,56,0.132220326042071,1
280,93,56,0.16092732081286,1
280,94,56,0.143742046493372,1
280,95,56,0.118268366800204,1
281,93,56,0.117073450618987,1
281,94,56,0.1269441957432,1
281,95,56,0.117180431672082,1
282,93,56,0.13405252378715,1
282,94,56,0.161625606543943,1
282,95,56,0.141867958435011,1
283,92,56,0.127796711314808,1
283,93,56,0.159866225162942,1
283,94,56,0.17254020598587,1
283,95,56,0.139842655413887,1
284,92,56,0.12410209638583,1
284,93,56,0.141713775701951,1
284,94,56,0.14455896059828,1
284,95,56,0.129288687170536,1
285,93,56,0.118917955189307,1
285,94,56,0.14089252771026,1
285,95,56,0.141749907127633,1
285,96,56,0.117296422027865,1
286,94,56,0.130748111767925,1
286,95,56,0.134585215001768,1
286,96,56,0.116622102219619,1
287,95,56,0.121315666275266,1
287,96,56,0.139180088918167,1
287,97,56,0.141762567258861,1
288,96,56,0.140970620110422,1
288,97,56,0.143268015849589,1
292,126,56,0.114981349212443,1
295,125,56,0.11773997414177,1
295,126,56,0.131077981791834,1
296,124,56,0.123163197500214,1
296,125,56,0.16842872532193,1
296,126,56,0.179672735489982,1
297,112,56,0.116083016166622,1
297,113,56,0.124195168959874,1
297,124,56,0.140516515924349,1
297,125,56,0.178031629176819,1
297,126,56,0.195344682495215,1
298,124,56,0.124157447657247,1
298,125,56,0.164333178758038,1
298,126,56,0.197916361449549,1
299,125,56,0.141929822313468,1
301,124,56,0.124771316810987,1
302,93,56,0.130925942448433,1
302,94,56,0.171346326168885,1
302,95,56,0.133463185845827,1
302,101,56,0.115200940660705,1
302,123,56,0.135877278552753,1
302,124,56,0.185513919831951,1
303,93,56,0.118697598244738,1
303,94,56,0.162565694893051,1
303,95,56,0.13275512531575,1
303,100,56,0.115021885186106,1
303,122,56,0.145274935182483,1
303,123,56,0.208403425315684,1
304,122,56,0.16849495841777,1
304,123,56,0.250886962905415,1
305,121,56,0.122605763089586,1
305,122,56,0.174696020238874,1
306,109,56,0.142986619407202,1
306,110,56,0.142486408789725,1
306,111,56,0.122091785315454,1
306,112,56,0.12701675301622,1
306,113,56,0.138067257494774,1
306,114,56,0.133783163302079,1
306,115,56,0.114669321140916,1
306,121,56,0.136516679952542,1
307,108,56,0.129201879889343,1
307,109,56,0.165313025807636,1
307,110,56,0.156797998196538,1
307,111,56,0.141377357740402,1
307,112,56,0.157136053142497,1
307,113,56,0.180006739193948,1
307,114,56,0.180823088009275,1
307,115,56,0.154539819422012,1
307,116,56,0.116507430872857,1
307,120,56,0.153690318728166,1
308,108,56,0.114703721367258,1
308,109,56,0.137061360017011,1
308,110,56,0.137391571570042,1
308,111,56,0.148547090365025,1
308,112,56,0.167783800571866,1
308,113,56,0.173184742099348,1
308,114,56,0.167794140660441,1
308,115,56,0.149310949687437,1
308,116,56,0.115760636229654,1
308,119,56,0.139549340782845,1
309,110,56,0.126220542642196,1
309,111,56,0.163951749613648,1
309,112,56,0.180762060288322,1
309,113,56,0.15696590097879,1
309,114,56,0.134210722431604,1
309,115,56,0.116597523899737,1
310,110,56,0.13321131400715,1
310,111,56,0.185492097298773,1
310,112,56,0.198140263230862,1
310,113,56,0.154516383458157,1
310,114,56,0.115408790573306,1
311,110,56,0.150838444571802,1
311,111,56,0.190499102649899,1
311,112,56,0.192531966419161,1
311,113,56,0.154114038599292,1
311,114,56,0.116404406846825,1
312,109,56,0.130382286971328,1
312,110,56,0.159591812402246,1
312,111,56,0.166135168841163,1
312,112,56,0.161436729162884,1
312,113,56,0.154350341420774,1
312,114,56,0.137416832948167,1
313,106,56,0.121620204259853,1
313,107,56,0.147221592290731,1
313,108,56,0.155157374734891,1
313,109,56,0.177131535065525,1
313,110,56,0.169215019574565,1
313,111,56,0.153346917084926,1
313,112,56,0.168602139677591,1
313,113,56,0.188355948528123,1
314,105,56,0.117111030599219,1
314,106,56,0.172388060650673,1
314,107,56,0.195067407956017,1
314,108,56,0.198048333012846,1
314,109,56,0.210519987273447,1
314,110,56,0.170575848247635,1
314,111,56,0.154059582369711,1
315,107,56,0.159433943510047,1
275,96,57,0.182420949669536,1
275,97,57,0.145192709102265,1
276,95,57,0.132000228188561,1
276,96,57,0.145919636172089,1
276,97,57,0.126517272564452,1
277,94,57,0.131962695315794,1
278,93,57,0.169457552358299,1
278,94,57,0.158216297976951,1
279,92,57,0.158920165942641,1
279,93,57,0.203188322737765,1
279,94,57,0.177240353309756,1
279,95,57,0.123925914466599,1
280,92,57,0.130928274267952,1
280,93,57,0.156574897242131,1
280,94,57,0.14385018167936,1
280,95,57,0.115401371147563,1
281,93,57,0.121127519059916,1
281,94,57,0.132440247242588,1
281,95,57,0.120647823743463,1
282,93,57,0.139040674375395,1
282,94,57,0.165168064360857,1
282,95,57,0.14631169982671,1
283,92,57,0.139766871279511,1
283,93,57,0.166234294724463,1
283,94,57,0.178965464009944,1
283,95,57,0.152313944591634,1
283,96,57,0.114864675798417,1
284,92,57,0.130875431469049,1
284,93,57,0.148743799362146,1
284,94,57,0.157631494129138,1
284,95,57,0.147396926275592,1
284,96,57,0.116984382179472,1
285,93,57,0.12135232765993,1
285,94,57,0.147625680125803,1
285,95,57,0.151195413164973,1
285,96,57,0.122720481543813,1
286,94,57,0.129274849352682,1
286,95,57,0.138426322370139,1
286,96,57,0.124103650932177,1
287,95,57,0.125280289416959,1
287,96,57,0.139284302407691,1
287,97,57,0.136761650547591,1
288,96,57,0.124979143169856,1
288,97,57,0.124631796276419,1
291,126,57,0.11822141243443,1
292,126,57,0.118487286967089,1
295,125,57,0.125960780303125,1
295,126,57,0.133419140366019,1
296,124,57,0.13114951447749,1
296,125,57,0.201972055098022,1
296,126,57,0.197937018072967,1
297,124,57,0.141538547708886,1
297,125,57,0.191632955779563,1
297,126,57,0.192514100913046,1
298,124,57,0.116776143630284,1
298,125,57,0.145930141136792,1
298,126,57,0.175159993438872,1
299,99,57,0.114945417993488,1
299,125,57,0.124661085342804,1
301,124,57,0.127556062829676,1
302,93,57,0.131582490965495,1
302,94,57,0.162107091944068,1
302,95,57,0.136781588782167,1
302,101,57,0.121608015203275,1
302,123,57,0.124282164670928,1
302,124,57,0.18590451137829,1
302,125,57,0.239307947999765,1
303,93,57,0.129304055981004,1
303,94,57,0.164223430141372,1
303,95,57,0.133505288142702,1
303,122,57,0.121746628919141,1
303,123,57,0.180291562704417,1
303,124,57,0.254502178202076,1
304,94,57,0.114570996084522,1
304,122,57,0.154757149711952,1
304,123,57,0.240105830688799,1
305,121,57,0.116797094675358,1
305,122,57,0.174208163554104,1
305,123,57,0.25789747229822,1
306,109,57,0.129124411663092,1
306,110,57,0.140755197672816,1
306,111,57,0.136138359900844,1
306,112,57,0.159148189627143,1
306,113,57,0.155755580656507,1
306,114,57,0.118078405947449,1
306,121,57,0.133310969849432,1
306,122,57,0.170743809914218,1
307,109,57,0.141948417985291,1
307,110,57,0.150382091004274,1
307,111,57,0.153902749841742,1
307,112,57,0.184020483644806,1
307,113,57,0.183697715071251,1
307,114,57,0.151972026833543,1
307,115,57,0.129055882078332,1
307,120,57,0.139490385790353,1
307,121,57,0.173202654712928,1
308,109,57,0.125549767670693,1
308,110,57,0.134675696665234,1
308,111,57,0.145317143471155,1
308,112,57,0.162061574355977,1
308,113,57,0.15923268864255,1
308,114,57,0.150671436831386,1
308,115,57,0.139254506936056,1
308,119,57,0.13101179580346,1
308,120,57,0.233458260760358,1
309,110,57,0.127047007785639,1
309,111,57,0.154831391076847,1
309,112,57,0.167773790235546,1
309,113,57,0.150766169943572,1
309,114,57,0.134869225908465,1
309,115,57,0.118910476879232,1
309,119,57,0.165111818047605,1
310,110,57,0.127766809851377,1
310,111,57,0.173702747561741,1
310,112,57,0.18994245728931,1
310,113,57,0.160321236167717,1
310,114,57,0.126856670073164,1
311,110,57,0.132494809463965,1
311,111,57,0.176101200590275,1
311,112,57,0.184520835584678,1
311,113,57,0.15931450253245,1
311,114,57,0.130043336983534,1
312,109,57,0.122149397745192,1
312,110,57,0.148217420547843,1
312,111,57,0.166109754363776,1
312,112,57,0.165681641721537,1
312,113,57,0.162598057721531,1
312,114,57,0.152362559495551,1
312,115,57,0.133099963736673,1
313,107,57,0.132059206734785,1
313,108,57,0.165914694127932,1
313,109,57,0.204409795752395,1
313,110,57,0.186625738444845,1
313,111,57,0.170526090987692,1
313,112,57,0.185720380074334,1
313,113,57,0.200635474992578,1
313,114,57,0.182298010962661,1
314,106,57,0.128325209965038,1
314,107,57,0.18516705579003,1
314,108,57,0.242130250444954,1
314,109,57,0.269079936563203,1
314,110,57,0.2023307313368,1
314,111,57,0.178921760059257,1
314,112,57,0.220622088935314,1
314,113,57,0.218004680409296,1
315,107,57,0.170770095879708,1
315,108,57,0.189236245727235,1
315,109,57,0.190973710360128,1
278,94,58,0.163895420862332,1
279,93,58,0.188949267050241,1
279,94,58,0.169615268151236,1
280,93,58,0.155638683482022,1
280,94,58,0.140920957065408,1
281,93,58,0.129279854520842,1
281,94,58,0.133252179733068,1
281,95,58,0.118702085230783,1
282,93,58,0.131359401787954,1
282,94,58,0.145566989688835,1
282,95,58,0.134424142801946,1
283,92,58,0.136618208316559,1
283,93,58,0.159040372416544,1
283,94,58,0.166608375104308,1
283,95,58,0.152344823534965,1
283,96,58,0.118180664477174,1
284,92,58,0.127321962282183,1
284,93,58,0.155484394757165,1
284,94,58,0.167859443383846,1
284,95,58,0.157449941958892,1
284,96,58,0.11998542212387,1
285,93,58,0.12077466059307,1
285,94,58,0.144934713293133,1
285,95,58,0.147425072985951,1
285,96,58,0.121992518109758,1
286,94,58,0.118555310146599,1
286,95,58,0.135850686388741,1
286,96,58,0.132720819304338,1
287,95,58,0.121344472490135,1
287,96,58,0.129273165260807,1
287,97,58,0.113821751853137,1
290,126,58,0.114877642128168,1
291,126,58,0.114166142753143,1
295,125,58,0.13930857452905,1
295,126,58,0.137328859757214,1
296,124,58,0.137956566728808,1
296,125,58,0.236170991241874,1
296,126,58,0.2239131813188,1
296,127,58,0.160419172587525,1
297,124,58,0.136729864785559,1
297,125,58,0.202715552218672,1
297,126,58,0.203688203602986,1
298,98,58,0.11865953541299,1
298,99,58,0.122312142260022,1
298,125,58,0.131613452346889,1
299,98,58,0.122047115661734,1
299,99,58,0.125936154875778,1
300,125,58,0.116472064943482,1
301,95,58,0.11561254213645,1
301,96,58,0.121207107122093,1
301,124,58,0.126159974219027,1
301,125,58,0.166498956239897,1
302,93,58,0.114480078677004,1
302,94,58,0.135781143993483,1
302,95,58,0.136090875576089,1
302,96,58,0.131022053453971,1
302,97,58,0.116033553328336,1
302,101,58,0.118210436395077,1
302,123,58,0.116965197664337,1
302,124,58,0.183661654306767,1
302,125,58,0.246031761360366,1
303,93,58,0.124865673063452,1
303,94,58,0.145869195853902,1
303,95,58,0.128130785679971,1
303,123,58,0.159578999171757,1
303,124,58,0.236569261305014,1
304,94,58,0.12202181895301,1
304,122,58,0.145338306499822,1
304,123,58,0.227899014596625,1
304,124,58,0.296283767455318,1
305,121,58,0.115824761266433,1
305,122,58,0.178234886111579,1
305,123,58,0.262827645373873,1
306,95,58,0.119166871034552,1
306,109,58,0.117907523618034,1
306,110,58,0.125111020518222,1
306,111,58,0.13277936210651,1
306,112,58,0.167929668837347,1
306,113,58,0.155871111714505,1
306,121,58,0.13240457511469,1
306,122,58,0.174976097672241,1
307,109,58,0.114252596728349,1
307,110,58,0.130450062836648,1
307,111,58,0.155680632679636,1
307,112,58,0.197722278693604,1
307,113,58,0.174843077967848,1
307,114,58,0.122955006058491,1
307,120,58,0.127871541523016,1
307,121,58,0.17074559999789,1
307,122,58,0.178455784791996,1
308,110,58,0.124333040733166,1
308,111,58,0.138795962871403,1
308,112,58,0.154129030550039,1
308,113,58,0.140664350926495,1
308,114,58,0.125880108769252,1
308,115,58,0.119276949403473,1
308,119,58,0.119064765604089,1
308,120,58,0.209929495199231,1
308,121,58,0.23075066499253,1
309,110,58,0.127818357194992,1
309,111,58,0.14539975818796,1
309,112,58,0.153989816213994,1
309,113,58,0.143565923458472,1
309,114,58,0.13111536156534,1
309,115,58,0.116961146422343,1
309,119,58,0.155355791377619,1
309,120,58,0.281104234782098,1
310,110,58,0.127695041628396,1
310,111,58,0.158729922445096,1
310,112,58,0.177066397218248,1
310,113,58,0.166432793805255,1
310,114,58,0.142229802650812,1
310,115,58,0.118842477253454,1
311,110,58,0.122002222247556,1
311,111,58,0.157783133059086,1
311,112,58,0.175244245140088,1
311,113,58,0.169868859412387,1
311,114,58,0.152126292004667,1
311,115,58,0.130848615544578,1
311,116,58,0.119854475147939,1
312,109,58,0.117995449701522,1
312,110,58,0.143060248375052,1
312,111,58,0.169425248414151,1
312,112,58,0.178441205031567,1
312,113,58,0.177392910835273,1
312,114,58,0.168009810412238,1
312,115,58,0.146039807315394,1
312,116,58,0.12836433271475,1
313,108,58,0.163448359242282,1
313,109,58,0.20936964653102,1
313,110,58,0.199319857709075,1
313,111,58,0.198652085838469,1
313,112,58,0.209641974786389,1
313,113,58,0.207476373957524,1
313,114,58,0.185227777312461,1
313,115,58,0.145996927745345,1
314,107,58,0.16173878222869,1
314,108,58,0.248352439964127,1
314,109,58,0.275414901353671,1
314,110,58,0.21500530100304,1
314,111,58,0.200026022163685,1
314,112,58,0.223780385374866,1
314,113,58,0.205146839150336,1
315,108,58,0.204745271564643,1
315,109,58,0.195827180705838,1
280,94,59,0.145511685524884,1
281,94,59,0.13597225897913,1
282,93,59,0.117748842122063,1
282,94,59,0.118595045293357,1
283,92,59,0.117141779997021,1
283,93,59,0.139236241016489,1
283,94,59,0.142602069393253,1
283,95,59,0.13743098874141,1
284,93,59,0.149952624022414,1
284,94,59,0.159146729295727,1
284,95,59,0.145073527215726,1
285,94,59,0.123860976826048,1
285,95,59,0.124211303266648,1
286,95,59,0.119395966413885,1
286,96,59,0.127881033677221,1
295,88,59,0.120224398293994,1
295,125,59,0.143144594291197,1
295,126,59,0.138264355128481,1
296,88,59,0.124330143624066,1
296,124,59,0.130907440991541,1
296,125,59,0.226596281204809,1
296,126,59,0.221332069094592,1
296,127,59,0.152841842621685,1
297,124,59,0.120843296169626,1
297,125,59,0.184303034220087,1
297,126,59,0.195575414858957,1
297,127,59,0.171462634500056,1
298,98,59,0.12213366385187,1
298,99,59,0.126089289467741,1
298,125,59,0.118340700312765,1
298,126,59,0.145384471815557,1
299,98,59,0.125936107768313,1
299,99,59,0.128856052211653,1
301,95,59,0.119885554297996,1
301,96,59,0.135831490096739,1
301,97,59,0.126814685544952,1
301,98,59,0.114800162125052,1
301,124,59,0.118272865563115,1
301,125,59,0.153827472112616,1
302,95,59,0.129188206947616,1
302,96,59,0.154595394453887,1
302,97,59,0.142575229915049,1
302,98,59,0.11713602110942,1
302,124,59,0.179210893902777,1
302,125,59,0.233193399038197,1
303,94,59,0.113997062284265,1
303,95,59,0.114525337174036,1
303,96,59,0.120417527123772,1
303,123,59,0.152793828337948,1
303,124,59,0.232658352450328,1
303,125,59,0.274197526688499,1
304,94,59,0.118096754305081,1
304,122,59,0.136017140616443,1
304,123,59,0.211551075468138,1
304,124,59,0.283717450743728,1
305,121,59,0.114603994863779,1
305,122,59,0.173386939116145,1
305,123,59,0.246111938265856,1
306,109,59,0.118575401480437,1
306,111,59,0.12189977528797,1
306,112,59,0.152871273010466,1
306,113,59,0.142973888614776,1
306,121,59,0.1308864781696,1
306,122,59,0.177391167859067,1
306,123,59,0.214233492295904,1
307,111,59,0.148980325944088,1
307,112,59,0.194064395810488,1
307,113,59,0.167159555998952,1
307,120,59,0.117428075615772,1
307,121,59,0.16650599880592,1
307,122,59,0.188345667323879,1
308,110,59,0.115537971019299,1
308,111,59,0.135360898297904,1
308,112,59,0.152876030864434,1
308,113,59,0.134461228153795,1
308,120,59,0.17468788242429,1
308,121,59,0.216117225607731,1
309,110,59,0.132439163770892,1
309,111,59,0.142651367355412,1
309,112,59,0.144973211868933,1
309,113,59,0.135397630343765,1
309,114,59,0.121913036039378,1
309,119,59,0.135328264601501,1
309,120,59,0.232071299221059,1
310,109,59,0.113758757395519,1
310,110,59,0.136629149025314,1
310,111,59,0.149158933897769,1
310,112,59,0.15834646767971,1
310,113,59,0.161698163816963,1
310,114,59,0.152343386757281,1
310,115,59,0.137522212347451,1
310,116,59,0.119004279618984,1
311,110,59,0.12422628344053,1
311,111,59,0.143351643376893,1
311,112,59,0.163020199492577,1
311,113,59,0.179645589813256,1
311,114,59,0.178689638025297,1
311,115,59,0.161180723644151,1
311,116,59,0.133055482512814,1
312,109,59,0.12380902906898,1
312,110,59,0.149535287212801,1
312,111,59,0.174515421994796,1
312,112,59,0.190575381412657,1
312,113,59,0.19325519555298,1
312,114,59,0.182372322988754,1
312,115,59,0.159002933758707,1
313,108,59,0.153191168028653,1
313,109,59,0.194442939622645,1
313,110,59,0.204399149465297,1
313,111,59,0.216779792103451,1
313,112,59,0.220071685313843,1
313,113,59,0.197636048478858,1
313,114,59,0.170310091483639,1
314,107,59,0.146318695285268,1
314,108,59,0.220592128587551,1
314,109,59,0.23649586787449,1
314,110,59,0.208025199478916,1
314,111,59,0.202781031595071,1
314,112,59,0.205495669928921,1
315,108,59,0.202403747907604,1
283,93,60,0.114182347721115,1
283,94,60,0.120373151891709,1
283,95,60,0.116437794262669,1
284,93,60,0.126257875308236,1
284,94,60,0.134942183594938,1
284,95,60,0.121376517343226,1
295,125,60,0.142750705222305,1
295,126,60,0.142815407325531,1
296,88,60,0.117690063782566,1
296,124,60,0.117460497328583,1
296,125,60,0.188537229830444,1
296,126,60,0.200420170323635,1
296,127,60,0.142723253347056,1
297,125,60,0.149678635228903,1
297,126,60,0.172295376713216,1
297,127,60,0.155882229076254,1
298,98,60,0.122659901343778,1
298,99,60,0.123329816604044,1
298,126,60,0.124665183692262,1
299,98,60,0.124025122787963,1
299,99,60,0.123632034545977,1
299,126,60,0.117231484387314,1
300,98,60,0.11401366766569,1
301,95,60,0.117052688003773,1
301,96,60,0.143772866552371,1
301,97,60,0.140043344991803,1
301,98,60,0.127036809019459,1
301,99,60,0.11827646928419,1
301,125,60,0.131423456163536,1
302,95,60,0.12079313849623,1
302,96,60,0.168191433243682,1
302,97,60,0.166910840360432,1
302,98,60,0.135136395896412,1
302,123,60,0.115346384959001,1
302,124,60,0.176390299103196,1
302,125,60,0.202027806782891,1
303,96,60,0.12658672074478,1
303,97,60,0.123316120108585,1
303,123,60,0.164110442886485,1
303,124,60,0.244703684152361,1
303,125,60,0.260243164965914,1
304,122,60,0.128877827637366,1
304,123,60,0.198294163319132,1
304,124,60,0.269626406711344,1
305,94,60,0.117168831458817,1
305,122,60,0.161152364950199,1
305,123,60,0.218860740817648,1
305,124,60,0.268323414228471,1
306,109,60,0.11887349751918,1
306,112,60,0.125647244792717,1
306,113,60,0.121461958507933,1
306,121,60,0.128336186004391,1
306,122,60,0.183442934346609,1
306,123,60,0.226603300217099,1
307,111,60,0.131680839575622,1
307,112,60,0.16472917588599,1
307,113,60,0.146880392921482,1
307,121,60,0.160211593542848,1
307,122,60,0.20811093506528,1
308,111,60,0.130181397186686,1
308,112,60,0.144197693448925,1
308,113,60,0.125318658447231,1
308,120,60,0.141713822809416,1
308,121,60,0.19813510496344,1
309,110,60,0.134449015543485,1
309,111,60,0.137917561747759,1
309,112,60,0.131793449970789,1
309,113,60,0.119482314397294,1
309,120,60,0.179469478555222,1
310,109,60,0.11843710573996,1
310,110,60,0.142938781776458,1
310,111,60,0.141654008105687,1
310,112,60,0.138314430363814,1
310,113,60,0.146915028685149,1
310,114,60,0.154300230854843,1
310,115,60,0.151558022877081,1
310,116,60,0.130631426577033,1
311,110,60,0.129148813329981,1
311,111,60,0.138010587214337,1
311,112,60,0.156146584393165,1
311,113,60,0.187683772109535,1
311,114,60,0.205873165599981,1
311,115,60,0.189229379814206,1
311,116,60,0.144540470918254,1
312,109,60,0.124465483371112,1
312,110,60,0.1529905962194,1
312,111,60,0.174858117026061,1
312,112,60,0.193432731811831,1
312,113,60,0.203698261046771,1
312,114,60,0.196399253761225,1
312,115,60,0.168269878949831,1
313,108,60,0.13120101471364,1
313,109,60,0.163701208560858,1
313,110,60,0.192607691669205,1
313,111,60,0.213505729068575,1
313,112,60,0.209998578296705,1
313,113,60,0.180068626626138,1
313,114,60,0.152886029423888,1
314,107,60,0.127729512515935,1
314,108,60,0.173546480323353,1
314,109,60,0.184888426911213,1
314,110,60,0.186953288426101,1
314,111,60,0.19091553264081,1
294,125,61,0.115455697831615,1
295,125,61,0.138806538497304,1
295,126,61,0.144411584893917,1
296,125,61,0.144785406182704,1
296,126,61,0.1639338958844,1
296,127,61,0.128591025613365,1
297,125,61,0.122254694706412,1
297,126,61,0.142875010045667,1
298,98,61,0.113921831662604,1
299,98,61,0.11585382657236,1
300,96,61,0.115620503298041,1
300,97,61,0.119246035129544,1
300,98,61,0.115665891340602,1
301,96,61,0.142304326660498,1
301,97,61,0.145864720644724,1
301,98,61,0.134001518179383,1
301,99,61,0.123866959474107,1
301,125,61,0.117322083819443,1
302,95,61,0.118368187518613,1
302,96,61,0.163645751297646,1
302,97,61,0.17072076258695,1
302,98,61,0.144489535971684,1
302,99,61,0.12021669622346,1
302,123,61,0.124494336693446,1
302,124,61,0.175445335131457,1
302,125,61,0.171078791098083,1
303,96,61,0.127766633198383,1
303,97,61,0.131799573941243,1
303,123,61,0.180520387215825,1
303,124,61,0.247487476244883,1
303,125,61,0.231610870857805,1
304,122,61,0.125089669059694,1
304,123,61,0.186041676539606,1
304,124,61,0.246541393470849,1
305,94,61,0.115088907331985,1
305,122,61,0.142176241463067,1
305,123,61,0.191223733230802,1
305,124,61,0.241375753731217,1
306,121,61,0.121287484234309,1
306,122,61,0.181886138618992,1
306,123,61,0.227970429513618,1
307,111,61,0.116511376123054,1
307,112,61,0.127417884857861,1
307,113,61,0.122247569702325,1
307,121,61,0.152992598286664,1
307,122,61,0.222575258650603,1
308,110,61,0.118708998251277,1
308,111,61,0.128326835172582,1
308,112,61,0.130011951634954,1
308,113,61,0.115330262429093,1
308,120,61,0.113768767731839,1
308,121,61,0.174753373577555,1
309,109,61,0.114737438535357,1
309,110,61,0.134322696875993,1
309,111,61,0.134711922305846,1
309,112,61,0.126984566840735,1
310,109,61,0.118821738191972,1
310,110,61,0.142274224990341,1
310,111,61,0.144261488733449,1
310,112,61,0.143058905812298,1
310,113,61,0.144769436752057,1
310,114,61,0.153621836250871,1
310,115,61,0.15412651030066,1
310,116,61,0.134841573826489,1
311,109,61,0.114962623995092,1
311,110,61,0.138546799711966,1
311,111,61,0.152789223583241,1
311,112,61,0.172078576382258,1
311,113,61,0.197269540624018,1
311,114,61,0.221170443382056,1
311,115,61,0.203067939610868,1
311,116,61,0.153774900181637,1
312,109,61,0.125877305875083,1
312,110,61,0.156434681872454,1
312,111,61,0.175740062986449,1
312,112,61,0.191541637958592,1
312,113,61,0.203455704709305,1
312,114,61,0.205050009755956,1
312,115,61,0.173849828844447,1
313,109,61,0.139868376089796,1
313,110,61,0.177349560190574,1
313,111,61,0.197814161804156,1
313,112,61,0.190363409596865,1
313,113,61,0.165248794779061,1
314,110,61,0.172084511922852,1
294,125,62,0.13283231089721,1
294,126,62,0.118397547246197,1
295,125,62,0.121207048237762,1
295,126,62,0.129398164919278,1
296,126,62,0.123410499914783,1
298,96,62,0.115534331967625,1
299,96,62,0.117600123854947,1
299,97,62,0.119427834613981,1
300,96,62,0.120119984597743,1
300,97,62,0.132540633250578,1
300,98,62,0.120268797079789,1
301,96,62,0.129472100085651,1
301,97,62,0.144871106438469,1
301,98,62,0.137365662464273,1
301,99,62,0.124754157916848,1
301,124,62,0.114485307605623,1
302,96,62,0.13991359925623,1
302,97,62,0.154781280510916,1
302,98,62,0.144787007836515,1
302,99,62,0.125359382850753,1
302,102,62,0.124264593586469,1
302,103,62,0.115539502011913,1
302,123,62,0.143660950992314,1
302,124,62,0.187038894466936,1
303,96,62,0.118279590153748,1
303,97,62,0.128548793770961,1
303,98,62,0.120328988643238,1
303,122,62,0.12697614638136,1
303,123,62,0.189552902107202,1
303,124,62,0.238509617789814,1
304,122,62,0.124349952313113,1
304,123,62,0.170232105075273,1
305,122,62,0.124537675561278,1
305,123,62,0.168050793906819,1
306,122,62,0.171118561575439,1
307,121,62,0.143866657515256,1
308,110,62,0.129533787311114,1
308,111,62,0.125012106618514,1
309,109,62,0.115072831909542,1
309,110,62,0.128287500439277,1
309,111,62,0.126540755635772,1
309,112,62,0.120603095205412,1
310,109,62,0.117431903097306,1
310,110,62,0.134560448252026,1
310,111,62,0.146781561459838,1
310,112,62,0.154215508078977,1
310,113,62,0.148963437917873,1
310,114,62,0.150817446419263,1
310,115,62,0.150828822872069,1
310,116,62,0.132009414144242,1
311,109,62,0.12114019096801,1
311,110,62,0.1460829459765,1
311,111,62,0.174231717286621,1
311,112,62,0.195824566241528,1
311,113,62,0.203913424393319,1
311,114,62,0.220572013699981,1
311,115,62,0.210425960773237,1
312,109,62,0.12662311126152,1
312,110,62,0.154188162195524,1
312,111,62,0.174645791904281,1
312,112,62,0.189109467761959,1
312,113,62,0.198589762662227,1
312,114,62,0.20538291821136,1
313,109,62,0.126912174443842,1
313,110,62,0.162953978173604,1
313,111,62,0.17631549244872,1
313,112,62,0.169552438569746,1
294,125,63,0.134982978659659,1
294,126,63,0.117457859310541,1
298,96,63,0.124463869940434,1
298,97,63,0.115158367289179,1
299,96,63,0.120867909820107,1
299,97,63,0.123871022492967,1
300,96,63,0.116497785619391,1
300,97,63,0.138269548726501,1
300,98,63,0.125202891851907,1
301,97,63,0.134023882448409,1
301,98,63,0.134156489962483,1
301,99,63,0.122038224127709,1
301,124,63,0.134787977308146,1
302,96,63,0.115104146596924,1
302,97,63,0.127539610547512,1
302,98,63,0.1327642523871,1
302,99,63,0.125809459348566,1
302,100,63,0.117416451848775,1
302,101,63,0.120076033332865,1
302,102,63,0.126605175094208,1
302,123,63,0.170420923572001,1
302,124,63,0.205274335504454,1
302,125,63,0.145268245922448,1
303,95,63,0.118770979898397,1
303,97,63,0.114680261849671,1
303,98,63,0.122046491487822,1
303,122,63,0.146857168941219,1
303,123,63,0.193902664106156,1
303,124,63,0.220745981568356,1
304,122,63,0.134164239140481,1
304,123,63,0.164850571823386,1
305,122,63,0.12203683445749,1
307,110,63,0.121401825828816,1
308,109,63,0.115008377120507,1
308,110,63,0.135538811416475,1
308,111,63,0.125692750603941,1
309,109,63,0.115689185982062,1
309,110,63,0.12294676225211,1
309,111,63,0.12292645893468,1
309,112,63,0.121055373977214,1
309,113,63,0.117669183398689,1
310,109,63,0.121686967314674,1
310,110,63,0.130229128825633,1
310,111,63,0.148200143885041,1
310,112,63,0.160546621834178,1
310,113,63,0.153179155625069,1
310,114,63,0.144423090892252,1
310,115,63,0.140681344944507,1
310,116,63,0.121760125207873,1
311,108,63,0.114277175048231,1
311,109,63,0.130055961784163,1
311,110,63,0.148932429429013,1
311,111,63,0.18390094845228,1
311,112,63,0.202968872611899,1
311,113,63,0.196459692638865,1
311,114,63,0.198922718225096,1
311,115,63,0.201288431565431,1
312,108,63,0.11867492777719,1
312,109,63,0.127118811339219,1
312,110,63,0.144767528899723,1
312,111,63,0.168667112648741,1
312,112,63,0.185377013761692,1
312,113,63,0.191799975296845,1
312,114,63,0.194643099241579,1
313,109,63,0.121767509303018,1
313,110,63,0.147583872250585,1
313,111,63,0.156113196977321,1
294,125,64,0.123767539169151,1
298,96,64,0.124425724670622,1
298,97,64,0.116425228346371,1
299,96,64,0.122717772864574,1
299,97,64,0.129231522261716,1
300,96,64,0.113991291619799,1
300,97,64,0.141901216305326,1
300,98,64,0.131014893119286,1
301,97,64,0.130716149352899,1
301,98,64,0.137807283172111,1
301,99,64,0.123436679888476,1
301,123,64,0.11769080572514,1
301,124,64,0.141885482412004,1
302,98,64,0.127010876359957,1
302,99,64,0.130875407915317,1
302,100,64,0.124333653130211,1
302,101,64,0.125637152018333,1
302,102,64,0.121829184751615,1
302,122,64,0.120040961825147,1
302,123,64,0.185233418431399,1
302,124,64,0.202119407248652,1
303,94,64,0.126859743835258,1
303,95,64,0.126649797640462,1
303,98,64,0.12726294840536,1
303,99,64,0.13058742820469,1
303,100,64,0.116950064391194,1
303,110,64,0.119425290810869,1
303,111,64,0.117540697787805,1
303,122,64,0.156946469149462,1
303,123,64,0.186079232966106,1
304,94,64,0.114028200318654,1
304,95,64,0.114181405571814,1
304,98,64,0.118056677629202,1
304,110,64,0.132876391707616,1
304,111,64,0.134989903457019,1
304,122,64,0.13744273027707,1
307,110,64,0.124730215547743,1
308,109,64,0.117507958099606,1
308,110,64,0.134342905978493,1
308,111,64,0.121080435148613,1
309,109,64,0.120686628517785,1
309,110,64,0.123991346735533,1
309,111,64,0.120558378444227,1
309,112,64,0.12249979484699,1
309,113,64,0.127819016699502,1
309,114,64,0.118359613959977,1
310,109,64,0.131495789676098,1
310,110,64,0.133960334478076,1
310,111,64,0.14423142239389,1
310,112,64,0.155354966996981,1
310,113,64,0.150419046810594,1
310,114,64,0.137813018505979,1
310,115,64,0.131256566191783,1
311,108,64,0.123017647210122,1
311,109,64,0.139380872711013,1
311,110,64,0.150372033560489,1
311,111,64,0.178620236952433,1
311,112,64,0.194917617994072,1
311,113,64,0.182627256812658,1
311,114,64,0.174485991606015,1
312,108,64,0.123516644810373,1
312,109,64,0.127828179101451,1
312,110,64,0.138794690969848,1
312,111,64,0.165872073648941,1
312,112,64,0.188983054879537,1
312,113,64,0.192339932837945,1
313,110,64,0.135106741747173,1
299,96,65,0.114098614202015,1
299,97,65,0.123295157286644,1
300,97,65,0.135879080413291,1
300,98,65,0.129721110145827,1
301,97,65,0.133375766167588,1
301,98,65,0.142190385479444,1
301,99,65,0.126806618391565,1
301,123,65,0.116854895534957,1
302,97,65,0.115082618485403,1
302,98,65,0.130114893222922,1
302,99,65,0.138298802462288,1
302,100,65,0.131277670336118,1
302,101,65,0.123198480991525,1
302,111,65,0.118051507584914,1
302,122,65,0.121175686442914,1
302,123,65,0.173841985451519,1
303,94,65,0.127305804421676,1
303,95,65,0.127928070481059,1
303,98,65,0.133865448266629,1
303,99,65,0.148477430201105,1
303,100,65,0.139875960391667,1
303,101,65,0.122281227986093,1
303,107,65,0.11900929656401,1
303,108,65,0.124985644000031,1
303,110,65,0.137947993170171,1
303,111,65,0.154060524519012,1
303,122,65,0.147199863972484,1
304,94,65,0.11924047644867,1
304,95,65,0.128111695379766,1
304,98,65,0.133739082491672,1
304,99,65,0.130050815293608,1
304,107,65,0.12310692763323,1
304,108,65,0.124051514745249,1
304,109,65,0.116032399195442,1
304,110,65,0.14703521160532,1
304,111,65,0.165913198465917,1
304,112,65,0.120178174093928,1
305,111,65,0.11446708879352,1
308,110,65,0.118119236342769,1
309,109,65,0.119181132819592,1
309,110,65,0.122024680731511,1
309,111,65,0.116138014132051,1
309,112,65,0.122127163021695,1
309,113,65,0.137638850430878,1
309,114,65,0.135902351501018,1
309,115,65,0.119130716055138,1
310,109,65,0.13184982582957,1
310,110,65,0.131929672982804,1
310,111,65,0.131275950913645,1
310,112,65,0.139257239169028,1
310,113,65,0.142162839389265,1
310,114,65,0.136216452301007,1
310,115,65,0.130266779467062,1
311,108,65,0.124196841274883,1
311,109,65,0.137802654863671,1
311,110,65,0.141726824469765,1
311,111,65,0.157780589255974,1
311,112,65,0.173224606791634,1
311,113,65,0.164625186156925,1
311,114,65,0.151464396790323,1
312,108,65,0.120885916648617,1
312,109,65,0.127772191879257,1
312,110,65,0.139803838862698,1
312,111,65,0.171423806172001,1
312,112,65,0.199005933562081,1
312,113,65,0.194681656701711,1
300,97,66,0.116598984231153,1
301,97,66,0.120238518756638,1
301,98,66,0.127250759348783,1
301,99,66,0.115305165927095,1
301,111,66,0.119759859804415,1
302,98,66,0.123397557138764,1
302,99,66,0.132488426402453,1
302,100,66,0.123187057431254,1
302,110,66,0.118258050265361,1
302,111,66,0.140971703582118,1
303,98,66,0.130934162701082,1
303,99,66,0.1543832813157,1
303,100,66,0.14854166122968,1
303,101,66,0.120259222487521,1
303,108,66,0.125916911476311,1
303,109,66,0.117416369410711,1
303,110,66,0.142142347641975,1
303,111,66,0.176051266677338,1
303,112,66,0.128480005095143,1
304,95,66,0.122470835532859,1
304,96,66,0.114041920367845,1
304,98,66,0.130490539925979,1
304,99,66,0.137453223464907,1
304,100,66,0.123492655333804,1
304,107,66,0.116198523670889,1
304,108,66,0.119108846414495,1
304,109,66,0.115568979508158,1
304,110,66,0.140048432598027,1
304,111,66,0.168891143975582,1
304,112,66,0.127009333590477,1
305,111,66,0.119674819053161,1
309,113,66,0.12835343911346,1
309,114,66,0.138936566877667,1
309,115,66,0.137348597785064,1
309,116,66,0.121447013664651,1
310,109,66,0.118325343279164,1
310,110,66,0.118994222175199,1
310,112,66,0.118029590836807,1
310,113,66,0.124827127380187,1
310,114,66,0.126816558066687,1
310,115,66,0.126056008043694,1
311,108,66,0.118077452021282,1
311,109,66,0.123296641171793,1
311,110,66,0.123786358601432,1
311,111,66,0.134563404245457,1
311,112,66,0.147494709596139,1
311,113,66,0.140427906782618,1
312,109,66,0.118657038717343,1
312,110,66,0.133249635929956,1
312,111,66,0.169407041378915,1
312,112,66,0.194011647226515,1
301,111,67,0.121852491169941,1
302,98,67,0.116805491581001,1
302,99,67,0.126833764068291,1
302,100,67,0.114968218006565,1
302,110,67,0.128181791287738,1
302,111,67,0.149731136498685,1
303,98,67,0.126140483505368,1
303,99,67,0.152567005893803,1
303,100,67,0.144519555203778,1
303,101,67,0.113795666094374,1
303,109,67,0.118537385756153,1
303,110,67,0.138480119095209,1
303,111,67,0.173453019112723,1
303,112,67,0.134209686067374,1
304,96,67,0.117582058142106,1
304,98,67,0.11924220764801,1
304,99,67,0.135400986750649,1
304,100,67,0.132057298882451,1
304,101,67,0.11503562878903,1
304,110,67,0.123073186911398,1
304,111,67,0.147202549097991,1
304,112,67,0.12311432350524,1
305,96,67,0.123898333045821,1
305,111,67,0.11485594914052,1
308,115,67,0.116832990563715,1
309,113,67,0.115135249300713,1
309,114,67,0.134622276799884,1
309,115,67,0.153416271050324,1
309,116,67,0.136492136963259,1
310,113,67,0.117058894412292,1
310,114,67,0.123453544360958,1
310,115,67,0.128593604747076,1
311,111,67,0.122917814714846,1
311,112,67,0.132535569198087,1
311,113,67,0.126233579633144,1
312,111,67,0.164354047365049,1
312,112,67,0.178898053227478,1
301,111,68,0.113903718842298,1
302,99,68,0.117629130276542,1
302,109,68,0.114022535645983,1
302,110,68,0.131793968152904,1
302,111,68,0.142766062255907,1
303,98,68,0.120822404008883,1
303,99,68,0.142724442810548,1
303,100,68,0.133999763426311,1
303,109,68,0.11522966443751,1
303,110,68,0.131220576088496,1
303,111,68,0.155384326724564,1
303,112,68,0.134003390701118,1
304,96,68,0.124771045943063,1
304,97,68,0.116494523427437,1
304,99,68,0.130830008095889,1
304,100,68,0.136353711677253,1
304,101,68,0.123489346034385,1
304,111,68,0.127563364486756,1
304,112,68,0.120550264183375,1
305,96,68,0.133296990709183,1
305,97,68,0.123266527724769,1
305,100,68,0.118129128910426,1
305,105,68,0.116909292880206,1
308,115,68,0.123119010698011,1
309,114,68,0.127308430662852,1
309,115,68,0.158047029078213,1
309,116,68,0.14347501782782,1
310,114,68,0.118853253086081,1
310,115,68,0.128907081373152,1
310,116,68,0.118013209215841,1
311,111,68,0.116440126082188,1
311,112,68,0.121266191660113,1
312,110,68,0.122987757523557,1
312,111,68,0.151063594700938,1
312,112,68,0.15580215816256,1
312,113,68,0.129078882298136,1
313,112,68,0.149031731965307,1
302,109,69,0.114443334854276,1
302,110,69,0.123911075615113,1
302,111,69,0.120931681550898,1
303,99,69,0.124704624417363,1
303,100,69,0.120599456153738,1
303,110,69,0.122264339959878,1
303,111,69,0.129534647022351,1
303,112,69,0.125024495881818,1
304,96,69,0.130110995080191,1
304,97,69,0.124624989247721,1
304,99,69,0.123504938605312,1
304,100,69,0.135723508010012,1
304,101,69,0.127033970794691,1
304,111,69,0.116484265776926,1
304,112,69,0.119113792698324,1
305,96,69,0.130205598646847,1
305,97,69,0.12714285970012,1
305,100,69,0.129982686122301,1
305,101,69,0.128259424390116,1
308,115,69,0.125806986206652,1
308,116,69,0.118487911141,1
309,114,69,0.120683236780303,1
309,115,69,0.147755390530778,1
309,116,69,0.137072595147422,1
310,114,69,0.11540685916724,1
310,115,69,0.124338634744638,1
311,111,69,0.114655659976056,1
311,112,69,0.116688523745319,1
312,110,69,0.113980527564038,1
312,111,69,0.131513761174008,1
312,112,69,0.134129497385018,1
304,96,70,0.124661909723442,1
304,97,70,0.124326999200775,1
304,99,70,0.115037042012981,1
304,100,70,0.128632597951259,1
304,101,70,0.123218713647758,1
305,96,70,0.116584663561782,1
305,97,70,0.120214458618871,1
305,100,70,0.134024636167849,1
305,101,70,0.134127683747614,1
306,101,70,0.11663979107274,1
308,115,70,0.120786790765316,1
308,116,70,0.11898754469203,1
309,115,70,0.126944584379786,1
309,116,70,0.122414353682282,1
310,115,70,0.11393091162649,1
