x,y,z,signal,mito.p
529,316,42,0.124440057116859,1
534,311,42,0.152576309618148,1
535,311,42,0.17394944935613,1
536,311,42,0.149416694169575,1
556,319,42,0.271929255139589,1
556,320,42,0.240750943868723,1
556,322,42,0.119709466593694,1
529,316,43,0.18541797370254,1
529,317,43,0.161501113290721,1
529,318,43,0.141232337409291,1
529,319,43,0.119993183078735,1
530,320,43,0.137537239628797,1
530,321,43,0.115577776827254,1
531,321,43,0.144747260912892,1
531,322,43,0.145614874427044,1
531,323,43,0.16928696445054,1
531,324,43,0.172750764577711,1
531,325,43,0.14056363516625,1
531,326,43,0.114066216042937,1
531,329,43,0.11783806366084,1
531,330,43,0.138287367125151,1
531,331,43,0.141646894878467,1
531,332,43,0.126310364801151,1
532,320,43,0.213266281823801,1
532,321,43,0.18386329781085,1
532,322,43,0.17666179120106,1
532,323,43,0.195201628900769,1
532,324,43,0.185507077472654,1
532,325,43,0.137987457449005,1
532,329,43,0.140547229991552,1
532,334,43,0.140924984753669,1
532,335,43,0.138926474103283,1
532,336,43,0.115264771275827,1
533,312,43,0.177426533788442,1
533,317,43,0.146643937000737,1
533,318,43,0.157443500013049,1
533,319,43,0.165449849439831,1
533,320,43,0.162631421583642,1
533,321,43,0.147697836985371,1
533,322,43,0.132048666439483,1
533,323,43,0.124350258511636,1
533,330,43,0.146200396663699,1
533,331,43,0.176456084678118,1
533,332,43,0.195470906947776,1
533,333,43,0.189466683669321,1
533,337,43,0.164343247978689,1
533,338,43,0.171032142930832,1
533,339,43,0.18377764466255,1
533,342,43,0.138777567406307,1
533,343,43,0.120278736754912,1
534,311,43,0.14467244248155,1
534,312,43,0.159943716942925,1
534,316,43,0.145322219300513,1
534,332,43,0.1366333769203,1
534,333,43,0.14613740220608,1
534,334,43,0.162985387075916,1
534,335,43,0.2035925283415,1
534,336,43,0.218602898107778,1
534,347,43,0.12501721777847,1
535,311,43,0.179134732908682,1
535,312,43,0.185506076439022,1
535,315,43,0.187890526773575,1
535,335,43,0.127585316565463,1
535,336,43,0.1574680194486,1
535,337,43,0.18372315310237,1
535,348,43,0.130231272215292,1
535,349,43,0.115870549722448,1
535,350,43,0.114582796504513,1
535,351,43,0.122330313964659,1
535,352,43,0.123562621696247,1
536,311,43,0.162578990975058,1
536,312,43,0.163534907432418,1
536,313,43,0.140072740049985,1
536,314,43,0.146150886717947,1
536,338,43,0.121738338005295,1
536,339,43,0.139388810318871,1
536,340,43,0.168830975965866,1
536,343,43,0.223342992562014,1
536,347,43,0.166875415546726,1
536,348,43,0.138566219764427,1
536,349,43,0.152372404955743,1
537,314,43,0.11616298108852,1
537,342,43,0.136072998293108,1
537,343,43,0.145762097032145,1
537,344,43,0.142008432895746,1
537,345,43,0.138884701558664,1
537,346,43,0.131379975973309,1
537,347,43,0.127616913897635,1
537,348,43,0.126409113824731,1
537,349,43,0.163474386116714,1
538,343,43,0.130255320576192,1
538,344,43,0.119664184542929,1
538,346,43,0.121674848919294,1
538,347,43,0.148132320912257,1
538,348,43,0.150911720233664,1
538,349,43,0.161139033537594,1
538,350,43,0.20634739645049,1
539,346,43,0.146397494297406,1
539,347,43,0.179594725527884,1
539,348,43,0.173017545929072,1
539,349,43,0.156302674978559,1
539,350,43,0.168341576511615,1
539,351,43,0.160445246569422,1
539,352,43,0.133830741841764,1
539,353,43,0.154474504921741,1
540,346,43,0.124795270956957,1
540,347,43,0.139120109338311,1
540,348,43,0.136590462019653,1
540,349,43,0.139437001255602,1
540,350,43,0.176056790027613,1
540,351,43,0.171938066590924,1
540,352,43,0.130834259544608,1
541,347,43,0.116070202936133,1
541,348,43,0.126206799039272,1
541,349,43,0.129620041079594,1
541,350,43,0.150771646186382,1
541,351,43,0.139491104179195,1
551,314,43,0.168154748305285,1
551,315,43,0.11597923842115,1
552,315,43,0.164775305871126,1
552,316,43,0.11391561347722,1
553,316,43,0.160799812681876,1
553,317,43,0.131636770542082,1
554,317,43,0.233827229980246,1
554,318,43,0.201174643483639,1
554,320,43,0.178143038331627,1
554,321,43,0.13113969257103,1
555,319,43,0.303610085293718,1
555,320,43,0.290213546618348,1
555,321,43,0.216037873082879,1
556,319,43,0.244258565715243,1
556,320,43,0.226567592758603,1
556,321,43,0.175415810527746,1
529,317,44,0.186756602982713,1
529,318,44,0.140980394909417,1
530,318,44,0.205894740818967,1
530,319,44,0.159336242627564,1
530,320,44,0.127933122756684,1
531,318,44,0.245403253561866,1
531,319,44,0.205057499842897,1
531,320,44,0.17958299576909,1
531,321,44,0.16574159774766,1
531,322,44,0.16530819729247,1
531,323,44,0.183545981926373,1
531,324,44,0.17606728321545,1
531,325,44,0.13781849474879,1
531,329,44,0.115519846422127,1
531,330,44,0.13371969776981,1
531,331,44,0.13825985636557,1
531,332,44,0.118440603469239,1
532,317,44,0.25323649483151,1
532,318,44,0.268008854130698,1
532,319,44,0.26285708753952,1
532,320,44,0.262398307937542,1
532,321,44,0.251072848962444,1
532,322,44,0.230659040973037,1
532,323,44,0.22590771138839,1
532,324,44,0.198935602116783,1
532,325,44,0.143791521108525,1
532,328,44,0.116797883725398,1
532,329,44,0.142092413729037,1
532,330,44,0.173897301392337,1
532,331,44,0.184557697176068,1
532,332,44,0.165807748405436,1
532,333,44,0.13990733396338,1
532,334,44,0.129608393758864,1
532,335,44,0.129697615297641,1
533,312,44,0.178099263719743,1
533,315,44,0.212563933073859,1
533,316,44,0.173352880418925,1
533,317,44,0.166168250058484,1
533,318,44,0.17558691661762,1
533,319,44,0.18759105284148,1
533,320,44,0.209290435328564,1
533,321,44,0.21147728162416,1
533,322,44,0.180343946205536,1
533,323,44,0.150016360422607,1
533,324,44,0.129610372272395,1
533,329,44,0.144101558889654,1
533,330,44,0.184187986013605,1
533,331,44,0.21696296948124,1
533,332,44,0.221785290015695,1
533,333,44,0.194856861141043,1
533,334,44,0.183314319190196,1
533,335,44,0.205792258528783,1
533,336,44,0.200377585175243,1
533,342,44,0.128118832160719,1
533,343,44,0.123162655764366,1
534,311,44,0.146746113092399,1
534,312,44,0.156514517248822,1
534,313,44,0.201139501314722,1
534,314,44,0.261035441866609,1
534,315,44,0.226047243699824,1
534,316,44,0.144013597475567,1
534,329,44,0.133786825907485,1
534,330,44,0.168850984861639,1
534,331,44,0.194588136606749,1
534,332,44,0.203439499741333,1
534,333,44,0.190898668168327,1
534,334,44,0.188008436758558,1
534,335,44,0.234188261592276,1
534,346,44,0.158362060250636,1
535,311,44,0.181413403430497,1
535,312,44,0.179627111910096,1
535,313,44,0.190866493769708,1
535,314,44,0.226143531358356,1
535,315,44,0.18587709483364,1
535,316,44,0.114433995799333,1
535,330,44,0.117076277066889,1
535,331,44,0.12129670552059,1
535,332,44,0.123105443748081,1
535,333,44,0.130852725670902,1
535,334,44,0.147458342633132,1
535,335,44,0.186199828076596,1
535,347,44,0.163846122900173,1
536,312,44,0.153942273004907,1
536,313,44,0.139136844265264,1
536,314,44,0.146542938595702,1
536,315,44,0.121250858180244,1
536,335,44,0.115050750285306,1
536,336,44,0.135689943941174,1
536,337,44,0.16155513377625,1
536,347,44,0.174165060223597,1
536,348,44,0.136680908352521,1
536,349,44,0.150463563365052,1
536,350,44,0.199930488224594,1
536,351,44,0.233914213914433,1
536,352,44,0.19894146699618,1
537,314,44,0.117189028784451,1
537,339,44,0.123802563569404,1
537,340,44,0.143153721362548,1
537,343,44,0.179212201134932,1
537,344,44,0.166821925020178,1
537,346,44,0.158215190951523,1
537,347,44,0.154916396497503,1
537,348,44,0.152597837729669,1
537,349,44,0.182239303284361,1
537,350,44,0.270262074844529,1
537,351,44,0.325898346424341,1
537,352,44,0.26937320408678,1
537,353,44,0.21128324597568,1
538,340,44,0.124766770940611,1
538,341,44,0.141768914989774,1
538,342,44,0.159619358492425,1
538,343,44,0.175414291311998,1
538,344,44,0.160998323539534,1
538,345,44,0.143092034137084,1
538,346,44,0.161945407347201,1
538,347,44,0.202326020590296,1
538,348,44,0.219972571207409,1
538,349,44,0.22133682694856,1
538,350,44,0.244992476466759,1
538,351,44,0.252801339623248,1
538,352,44,0.217816250549155,1
538,353,44,0.21259462358733,1
539,342,44,0.135888101492845,1
539,343,44,0.164888952630523,1
539,344,44,0.177712758745996,1
539,345,44,0.186443149910369,1
539,346,44,0.22834467476959,1
539,350,44,0.232418292808508,1
539,351,44,0.19343641797097,1
539,352,44,0.155329740949455,1
539,353,44,0.17534629168622,1
540,342,44,0.120367993624287,1
540,343,44,0.142300569840162,1
540,344,44,0.165754375647551,1
540,345,44,0.183339403915328,1
540,346,44,0.20988064475799,1
540,347,44,0.209336317999508,1
540,348,44,0.199806901790074,1
540,349,44,0.209996458460779,1
540,350,44,0.227793941395864,1
540,351,44,0.187477264759687,1
540,352,44,0.12662100320246,1
540,353,44,0.132154458029086,1
541,344,44,0.114543626647336,1
541,345,44,0.124726552942337,1
541,346,44,0.149706923261657,1
541,347,44,0.162635767247291,1
541,348,44,0.15343611506997,1
541,349,44,0.152607329883874,1
541,350,44,0.162518658089214,1
541,351,44,0.131718925961103,1
542,346,44,0.11823998455252,1
542,347,44,0.134032196915987,1
542,348,44,0.114925314882784,1
551,314,44,0.179660887962526,1
551,315,44,0.119564352047653,1
552,315,44,0.163868652045326,1
552,316,44,0.135971846788811,1
553,316,44,0.180565045092679,1
553,317,44,0.174441910795608,1
553,318,44,0.131978959168097,1
554,317,44,0.221749747433326,1
554,318,44,0.220598323219204,1
554,319,44,0.222672959533086,1
554,320,44,0.202522600041888,1
554,321,44,0.138469578799907,1
555,318,44,0.251555111635742,1
555,319,44,0.28362382465697,1
555,320,44,0.284188925807533,1
555,321,44,0.207122526233912,1
556,320,44,0.18488390459457,1
556,321,44,0.143920230479868,1
529,317,45,0.192310078481979,1
529,318,45,0.130298306138037,1
530,318,45,0.221759098265136,1
530,319,45,0.154619124839399,1
530,320,45,0.121461381441487,1
531,319,45,0.224440007654021,1
531,320,45,0.190645147568374,1
531,321,45,0.1820042841413,1
531,322,45,0.176735714590567,1
531,323,45,0.181412826364051,1
531,324,45,0.166226321786006,1
531,325,45,0.133018138069907,1
531,330,45,0.118258580224343,1
531,331,45,0.129491637906774,1
531,332,45,0.114178567347046,1
532,318,45,0.281863819102058,1
532,319,45,0.258016018233981,1
532,320,45,0.273464440317621,1
532,321,45,0.291749367747158,1
532,322,45,0.26497998545133,1
532,323,45,0.230920958478632,1
532,324,45,0.191159619970889,1
532,325,45,0.142824557950614,1
532,328,45,0.118999321558289,1
532,329,45,0.135649572843639,1
532,330,45,0.159633420070738,1
532,331,45,0.181273576697407,1
532,332,45,0.165342868386736,1
532,333,45,0.127805049336119,1
533,312,45,0.173385784983252,1
533,315,45,0.207426110292331,1
533,316,45,0.178216419985286,1
533,317,45,0.176066541272876,1
533,318,45,0.181579080385026,1
533,319,45,0.189387072053412,1
533,320,45,0.223366852493054,1
533,321,45,0.249832108994615,1
533,322,45,0.216649115995443,1
533,323,45,0.169161599709215,1
533,324,45,0.144714850976948,1
533,325,45,0.126390341499915,1
533,327,45,0.124614908250204,1
533,328,45,0.161942098047782,1
533,329,45,0.199822612129663,1
533,330,45,0.234195327712031,1
533,331,45,0.255244262098775,1
533,332,45,0.232988316689167,1
533,333,45,0.180362153240772,1
533,334,45,0.156425802115295,1
533,335,45,0.170655118334423,1
533,341,45,0.125595073275191,1
533,342,45,0.122323601150892,1
533,343,45,0.124477907965015,1
534,312,45,0.154873493373723,1
534,313,45,0.199384182952581,1
534,314,45,0.240068168270503,1
534,315,45,0.201397720884313,1
534,316,45,0.148302637952092,1
534,317,45,0.130437096506897,1
534,318,45,0.126618612498609,1
534,319,45,0.12156147302782,1
534,320,45,0.120680669423458,1
534,321,45,0.122474945659184,1
534,327,45,0.137565998736201,1
534,332,45,0.265385486510353,1
534,333,45,0.221130378483044,1
534,334,45,0.206916383966918,1
534,346,45,0.129365719652735,1
535,311,45,0.172200231410711,1
535,312,45,0.164758476729242,1
535,313,45,0.188829884956975,1
535,314,45,0.208497381154696,1
535,315,45,0.169812389338676,1
535,316,45,0.123469148708751,1
535,327,45,0.118843230972894,1
535,328,45,0.140935795916895,1
535,329,45,0.170889972601356,1
535,330,45,0.199394758578481,1
535,331,45,0.204308137842849,1
535,332,45,0.196748013878613,1
535,333,45,0.202606639759511,1
535,334,45,0.225198885362005,1
535,347,45,0.136859787174126,1
536,312,45,0.133599856378761,1
536,313,45,0.134197756101853,1
536,314,45,0.139133334759119,1
536,315,45,0.12291902773207,1
536,331,45,0.114175046064035,1
536,332,45,0.122113030782185,1
536,333,45,0.145420497249442,1
536,334,45,0.170995599314831,1
536,335,45,0.18294068633127,1
536,347,45,0.173542959040342,1
536,348,45,0.136847857208606,1
536,349,45,0.143069139909077,1
536,350,45,0.178175071407851,1
537,314,45,0.114125206366027,1
537,326,45,0.126803662398134,1
537,327,45,0.117562249453059,1
537,335,45,0.114440107992921,1
537,336,45,0.132036689366498,1
537,337,45,0.158617264942464,1
537,338,45,0.178079608129957,1
537,339,45,0.188878334984764,1
537,346,45,0.19634915497216,1
537,347,45,0.184887955836563,1
537,348,45,0.187144945147597,1
537,349,45,0.198141040504035,1
537,350,45,0.250674955759024,1
537,351,45,0.272576629477835,1
538,314,45,0.115134966655923,1
538,325,45,0.114103843130634,1
538,326,45,0.129204411915588,1
538,327,45,0.12727192237745,1
538,328,45,0.124469087092187,1
538,337,45,0.133147671821888,1
538,338,45,0.154022131935008,1
538,339,45,0.166330323291938,1
538,340,45,0.192456064516123,1
538,341,45,0.219952574088501,1
538,342,45,0.223303704936175,1
538,343,45,0.220863279156294,1
538,344,45,0.212580797546342,1
538,345,45,0.195200415883544,1
538,346,45,0.200323812003905,1
538,351,45,0.268004638012578,1
538,352,45,0.231501016249343,1
539,339,45,0.114520072914819,1
539,340,45,0.141277843220515,1
539,341,45,0.176335053823576,1
539,342,45,0.210750177901342,1
539,351,45,0.244092323471134,1
539,352,45,0.192450270297924,1
540,340,45,0.126643968091664,1
540,341,45,0.174490926112977,1
540,342,45,0.217581773141943,1
540,350,45,0.264216538319238,1
540,351,45,0.200051719285862,1
541,340,45,0.115024511427282,1
541,341,45,0.151394194890555,1
541,342,45,0.17140545781437,1
541,343,45,0.171056426829058,1
541,344,45,0.170774359105294,1
541,345,45,0.176291809170674,1
541,346,45,0.214224282786489,1
541,347,45,0.215501083518803,1
541,348,45,0.181796834642151,1
541,349,45,0.169835448442811,1
541,350,45,0.156130332317728,1
541,351,45,0.117249985844207,1
542,342,45,0.113980209588649,1
542,343,45,0.123777408183075,1
542,344,45,0.134852102344925,1
542,345,45,0.138615246858662,1
542,346,45,0.156286611332982,1
542,347,45,0.152913163323748,1
542,348,45,0.114138113811447,1
543,332,45,0.117760995848042,1
543,333,45,0.132684676101789,1
543,334,45,0.116392889071624,1
544,332,45,0.119367796149794,1
544,333,45,0.139931959390727,1
544,334,45,0.126903306463549,1
546,333,45,0.116605379069531,1
547,332,45,0.122956124860786,1
547,333,45,0.13699960213035,1
547,337,45,0.135421513828538,1
548,337,45,0.124502780706554,1
548,338,45,0.117591397197049,1
551,315,45,0.123245647340892,1
551,328,45,0.126065405982968,1
551,329,45,0.131790505754224,1
551,330,45,0.140524559524004,1
551,331,45,0.122078501010314,1
552,316,45,0.157205301116098,1
552,317,45,0.129809813502488,1
552,328,45,0.121541099049192,1
552,329,45,0.132449009231085,1
552,330,45,0.134171599681893,1
553,317,45,0.223178587509041,1
553,318,45,0.155569164640496,1
554,318,45,0.233338866890226,1
554,319,45,0.229564687452804,1
554,320,45,0.195506343538349,1
554,321,45,0.128826916244529,1
555,319,45,0.243803955123921,1
555,320,45,0.240699902930358,1
555,321,45,0.170867219695744,1
529,318,46,0.120074325687258,1
530,319,46,0.151781806889731,1
530,320,46,0.124080403398182,1
531,319,46,0.227399133731404,1
531,320,46,0.198471358048862,1
531,321,46,0.195570539236326,1
531,322,46,0.180093428706479,1
531,323,46,0.161690485300163,1
531,324,46,0.143004355367787,1
531,325,46,0.122661455890124,1
531,331,46,0.126211144702921,1
531,332,46,0.117069269831466,1
532,318,46,0.255336451407849,1
532,319,46,0.223742770064035,1
532,320,46,0.24601122250561,1
532,321,46,0.285324686789531,1
532,322,46,0.265434972902373,1
532,323,46,0.21468645412595,1
532,324,46,0.173132099507171,1
532,325,46,0.142297189879545,1
532,326,46,0.122377138784904,1
532,327,46,0.117876515129175,1
532,328,46,0.126110652703135,1
532,329,46,0.13804041801657,1
532,330,46,0.159415489160619,1
532,331,46,0.192879254428267,1
532,332,46,0.178618682406087,1
532,333,46,0.120602365039704,1
533,313,46,0.207224089928528,1
533,314,46,0.243170241950535,1
533,315,46,0.225189204777941,1
533,316,46,0.188012582215481,1
533,317,46,0.180641771376355,1
533,318,46,0.181930030999538,1
533,319,46,0.17910118061671,1
533,320,46,0.203814781361536,1
533,321,46,0.242297057978643,1
533,322,46,0.226778681309425,1
533,323,46,0.181013284399355,1
533,324,46,0.155358405841929,1
533,325,46,0.145879724372338,1
533,326,46,0.148050883882077,1
533,327,46,0.177926567752924,1
533,332,46,0.237326348929327,1
533,333,46,0.158940551698135,1
533,334,46,0.126127599613681,1
533,335,46,0.129584592712155,1
533,339,46,0.135321457572803,1
533,340,46,0.127976485178249,1
533,343,46,0.113983966408986,1
534,312,46,0.153371224536884,1
534,313,46,0.196510580477969,1
534,314,46,0.23020186302487,1
534,315,46,0.198326549701343,1
534,316,46,0.162907224014557,1
534,317,46,0.167689138120878,1
534,318,46,0.175396319814088,1
534,319,46,0.155525660896536,1
534,320,46,0.132917858053714,1
534,321,46,0.128446229042713,1
534,322,46,0.122261501735109,1
534,323,46,0.114310150273756,1
534,324,46,0.119989591134526,1
534,325,46,0.139102820898643,1
534,326,46,0.176728836900672,1
534,333,46,0.226652315534469,1
534,334,46,0.207901636598129,1
534,345,46,0.141688161017838,1
535,312,46,0.151226362769501,1
535,313,46,0.183797394467266,1
535,314,46,0.190176263415146,1
535,315,46,0.157420205371589,1
535,316,46,0.137375013296082,1
535,317,46,0.140735565636762,1
535,318,46,0.142003357066388,1
535,319,46,0.122817652467315,1
535,326,46,0.154634022575216,1
535,327,46,0.188750308671665,1
535,346,46,0.167065352845748,1
536,312,46,0.123559300619963,1
536,313,46,0.139712744802186,1
536,314,46,0.137402488725064,1
536,315,46,0.123443981545556,1
536,325,46,0.116911824906452,1
536,326,46,0.163135283029658,1
536,327,46,0.159524319181717,1
536,328,46,0.139679852014725,1
536,329,46,0.134177605883685,1
536,330,46,0.145884329127045,1
536,331,46,0.167260095106203,1
536,346,46,0.226917130149164,1
536,347,46,0.163845486949395,1
536,348,46,0.138048355624429,1
537,314,46,0.116863916614511,1
537,315,46,0.123381093079734,1
537,325,46,0.152647453667217,1
537,326,46,0.215060534505794,1
537,327,46,0.191242929522804,1
537,328,46,0.143011798347263,1
537,329,46,0.114540176025522,1
537,332,46,0.127903044640259,1
537,333,46,0.157599802582036,1
537,334,46,0.167821368775231,1
537,335,46,0.179381446479937,1
537,345,46,0.271998220468401,1
537,346,46,0.233220768475383,1
537,347,46,0.206017361550454,1
537,348,46,0.216117319822661,1
538,314,46,0.120591459661548,1
538,315,46,0.143174354432233,1
538,316,46,0.123552552475596,1
538,325,46,0.162532601898864,1
538,326,46,0.206406940286295,1
538,327,46,0.190327690361502,1
538,328,46,0.15777802189913,1
538,329,46,0.130686483426793,1
538,336,46,0.153505586804031,1
538,337,46,0.21223677172919,1
538,338,46,0.239030013956058,1
539,315,46,0.136354536057891,1
539,316,46,0.115727142822014,1
539,324,46,0.115833440816866,1
539,325,46,0.12902129342213,1
539,326,46,0.13349843400654,1
539,327,46,0.129343013854588,1
539,328,46,0.134539308777091,1
539,329,46,0.144016471030935,1
539,330,46,0.145886130987583,1
539,331,46,0.132821381965322,1
539,337,46,0.128157613381309,1
539,338,46,0.142040819277958,1
539,339,46,0.147074628776688,1
539,340,46,0.183607704482435,1
540,329,46,0.133524343112309,1
540,330,46,0.162819227269871,1
540,331,46,0.171330898474086,1
540,332,46,0.144729336522446,1
540,340,46,0.16270559228734,1
540,341,46,0.248869797698876,1
541,329,46,0.116069837853279,1
541,330,46,0.138304537796156,1
541,331,46,0.144953874254536,1
541,332,46,0.129502072210279,1
541,340,46,0.13790471318667,1
541,341,46,0.20022646442741,1
541,342,46,0.233115836597017,1
541,349,46,0.165196576154069,1
541,350,46,0.133469415808078,1
542,329,46,0.11674527646382,1
542,330,46,0.119129267500588,1
542,331,46,0.12143451840955,1
542,332,46,0.134289073922824,1
542,333,46,0.140910416770107,1
542,334,46,0.13816526457578,1
542,335,46,0.116211254463315,1
542,341,46,0.128868005730906,1
542,342,46,0.171806389449285,1
542,343,46,0.178377291978381,1
542,344,46,0.172759220367685,1
542,345,46,0.169655851232364,1
542,346,46,0.172001249478403,1
542,347,46,0.149796097692968,1
543,328,46,0.114546994831086,1
543,329,46,0.119730429415635,1
543,330,46,0.120880463959539,1
543,331,46,0.145758269550611,1
543,332,46,0.190603528123015,1
543,333,46,0.196965073300629,1
543,334,46,0.166409192965273,1
543,335,46,0.115277431407056,1
543,343,46,0.116578410045799,1
544,329,46,0.113778259886043,1
544,330,46,0.116966080929306,1
544,331,46,0.145408791044381,1
544,332,46,0.183582607980438,1
544,333,46,0.189001261914773,1
544,334,46,0.158813385096272,1
545,328,46,0.121829125867284,1
545,329,46,0.118416849529995,1
545,331,46,0.124592543981178,1
545,332,46,0.147052028970337,1
545,333,46,0.166522038897764,1
545,334,46,0.154856699562438,1
546,328,46,0.133940290251704,1
546,329,46,0.124237765885132,1
546,330,46,0.11698385222049,1
546,331,46,0.142372561823602,1
546,332,46,0.168879190456329,1
546,333,46,0.177732331897718,1
546,334,46,0.144697786297739,1
547,328,46,0.11391664984145,1
547,329,46,0.116408281435824,1
547,330,46,0.123486955330535,1
547,331,46,0.164966703501564,1
547,332,46,0.192168897409268,1
547,333,46,0.18309786038836,1
547,334,46,0.136112733439865,1
547,335,46,0.119458160044598,1
547,336,46,0.143790885157747,1
547,337,46,0.158843086352977,1
548,332,46,0.122272030253545,1
548,333,46,0.12872822610528,1
548,334,46,0.122691557560282,1
548,335,46,0.127558618409654,1
548,336,46,0.137825761075271,1
548,337,46,0.145147438828366,1
548,338,46,0.122846588227713,1
551,325,46,0.116417702928831,1
551,326,46,0.145382528632624,1
551,327,46,0.143552085640618,1
551,328,46,0.143562154861269,1
551,329,46,0.139092045066016,1
551,330,46,0.144995399484965,1
551,331,46,0.133070969091944,1
552,317,46,0.125374445462698,1
552,327,46,0.119025901945435,1
552,328,46,0.131429956993711,1
552,329,46,0.138449781887726,1
552,330,46,0.15097557440252,1
552,331,46,0.132597668613869,1
553,318,46,0.151256829522512,1
554,319,46,0.196927151791275,1
554,320,46,0.155640885756012,1
529,318,47,0.114170335317531,1
530,318,47,0.212217669652118,1
530,319,47,0.155374151512117,1
530,320,47,0.136782224732945,1
530,321,47,0.120702409518572,1
531,319,47,0.219126992210027,1
531,320,47,0.210848137874882,1
531,321,47,0.21014157300682,1
531,322,47,0.179366218991864,1
531,323,47,0.137761082525778,1
531,324,47,0.115063269094139,1
531,331,47,0.125676910718823,1
531,332,47,0.118748592075639,1
532,318,47,0.216774704497227,1
532,319,47,0.18789029123625,1
532,320,47,0.210090720498314,1
532,321,47,0.253309911815768,1
532,322,47,0.248979039910292,1
532,323,47,0.196785134561061,1
532,324,47,0.154251309752404,1
532,325,47,0.140653657531933,1
532,326,47,0.139543063713129,1
532,327,47,0.140109165897323,1
532,332,47,0.189752625982085,1
532,333,47,0.115208242317785,1
533,313,47,0.21012904242112,1
533,314,47,0.254852186667287,1
533,315,47,0.245896657150645,1
533,316,47,0.202003923298118,1
533,317,47,0.189993981079192,1
533,318,47,0.189242617011881,1
533,319,47,0.17200585423311,1
533,320,47,0.175519788479945,1
533,321,47,0.206945449272844,1
533,322,47,0.215405667348374,1
533,323,47,0.185546635966418,1
533,324,47,0.156864431499104,1
533,325,47,0.16211722004905,1
533,333,47,0.142966221874841,1
533,336,47,0.116472936431585,1
533,338,47,0.124204979089467,1
533,339,47,0.117398916094916,1
534,313,47,0.193721053051579,1
534,314,47,0.223151594931576,1
534,315,47,0.206757466933622,1
534,316,47,0.183004434508329,1
534,317,47,0.203566642789463,1
534,318,47,0.225931029583582,1
534,319,47,0.194985205429531,1
534,320,47,0.151871817478547,1
534,321,47,0.136000617673082,1
534,322,47,0.134121312462968,1
534,323,47,0.131814648330054,1
534,324,47,0.136226851273913,1
534,325,47,0.170577697215638,1
535,312,47,0.148783063434253,1
535,313,47,0.175016751414567,1
535,314,47,0.172136577448582,1
535,315,47,0.15048122866444,1
535,316,47,0.151249940055751,1
535,317,47,0.181720391003266,1
535,318,47,0.202786331184887,1
535,319,47,0.17534282928754,1
535,320,47,0.1309596360628,1
535,325,47,0.137610303307067,1
535,326,47,0.200408558333504,1
535,345,47,0.163710512285203,1
536,312,47,0.131976062058998,1
536,313,47,0.154958899207831,1
536,314,47,0.141072784425217,1
536,315,47,0.124618547301878,1
536,316,47,0.129201208607966,1
536,317,47,0.142523293934848,1
536,318,47,0.14735003079415,1
536,319,47,0.130019217961436,1
536,325,47,0.134241036085355,1
536,326,47,0.205640784474962,1
536,327,47,0.214684569827348,1
536,346,47,0.184902924233578,1
537,313,47,0.120345111173146,1
537,314,47,0.122677578420033,1
537,315,47,0.140457796469182,1
537,316,47,0.148184998835032,1
537,317,47,0.128619325422985,1
537,318,47,0.115484303839758,1
537,325,47,0.1777039614269,1
537,326,47,0.286910017864093,1
537,328,47,0.183185209405401,1
537,329,47,0.138409811203644,1
537,330,47,0.125330659073948,1
537,331,47,0.135042828693986,1
537,347,47,0.216573202315539,1
537,348,47,0.231305967790365,1
538,314,47,0.121127554390515,1
538,315,47,0.173856282567157,1
538,316,47,0.180660060849655,1
538,317,47,0.128638250847063,1
538,324,47,0.146461654664784,1
538,325,47,0.196395167188633,1
538,326,47,0.269445702475469,1
538,327,47,0.248450447045132,1
538,328,47,0.18150641712021,1
538,329,47,0.147825521769349,1
538,330,47,0.134580669131392,1
538,331,47,0.118527716948955,1
538,332,47,0.113876537834973,1
538,333,47,0.118627349237504,1
538,334,47,0.125042008081945,1
538,335,47,0.14208031888739,1
539,315,47,0.156575450754845,1
539,316,47,0.156770334337696,1
539,317,47,0.117666934017233,1
539,323,47,0.123240677503331,1
539,324,47,0.153213932711132,1
539,325,47,0.165180465401027,1
539,326,47,0.180357536709199,1
539,327,47,0.173761243256449,1
539,328,47,0.166249663534931,1
539,329,47,0.187639008240886,1
539,330,47,0.204579076427999,1
539,331,47,0.176749081333771,1
539,332,47,0.133909116886717,1
539,336,47,0.128638486384388,1
539,337,47,0.161739182642143,1
539,338,47,0.176472089439364,1
540,324,47,0.113765576201083,1
540,325,47,0.120544976370424,1
540,326,47,0.132759235442074,1
540,327,47,0.13643521936863,1
540,328,47,0.144202239319301,1
540,329,47,0.186690640754797,1
540,330,47,0.244370304622307,2
540,331,47,0.239435161709093,1
540,332,47,0.18022919242071,1
540,333,47,0.12838444760232,1
540,336,47,0.13717421772637,1
540,337,47,0.135070586767758,1
540,338,47,0.11990650534307,1
540,339,47,0.132417623882505,1
540,340,47,0.198081661544358,1
541,326,47,0.130219766216957,1
541,327,47,0.137730062260052,1
541,328,47,0.141093429271769,1
541,329,47,0.162054001830973,1
541,330,47,0.203394158806237,1
541,331,47,0.200313872328783,1
541,332,47,0.169526553017709,1
541,333,47,0.157380576216628,1
541,334,47,0.157258756312047,1
541,335,47,0.146999951667741,1
541,336,47,0.150296508517171,1
541,337,47,0.133689925851908,1
541,338,47,0.115415644709469,1
541,339,47,0.11954402517649,1
541,340,47,0.155662272545138,1
541,341,47,0.226139503670095,1
541,348,47,0.170114607280609,1
541,349,47,0.148913527558668,1
542,325,47,0.118887700419888,1
542,326,47,0.126044113408772,1
542,327,47,0.14281263976196,1
542,328,47,0.171566494683593,1
542,329,47,0.174974978869947,1
542,330,47,0.170078346309399,1
542,331,47,0.160918806138555,1
542,332,47,0.182612335523108,1
542,333,47,0.218587493966711,3
542,334,47,0.231775605663033,3
542,335,47,0.183221234839287,1
542,336,47,0.136215510151706,1
542,341,47,0.15818265147005,1
542,342,47,0.21339799429604,1
542,343,47,0.205640784474962,1
542,344,47,0.182550224330459,1
542,345,47,0.173432786456491,1
542,346,47,0.15622727948077,1
542,347,47,0.124033425478675,1
543,327,47,0.134488986227567,1
543,328,47,0.187787585185607,1
543,329,47,0.18665043453339,1
543,330,47,0.166531884357957,1
543,331,47,0.191501419960319,1
543,332,47,0.247403672064585,1
543,333,47,0.2473166174692,1
543,334,47,0.212520335114969,1
543,335,47,0.148621755697106,1
543,342,47,0.133811651541559,1
543,343,47,0.135514291980924,1
543,344,47,0.114636216369863,1
544,315,47,0.129698639885005,1
544,328,47,0.16614065686084,1
544,329,47,0.172661048410552,1
544,330,47,0.158033179483493,1
544,331,47,0.193109185965103,1
544,332,47,0.237401697319651,1
544,333,47,0.214318003088177,1
544,334,47,0.166339638793148,1
545,315,47,0.131910029169885,1
545,316,47,0.11380694833225,1
545,327,47,0.122479114669839,1
545,328,47,0.168181210923769,1
545,329,47,0.170994127206549,1
545,330,47,0.146900319379191,1
545,331,47,0.160412212459566,1
545,332,47,0.198505134101292,1
545,333,47,0.220132854357191,1
545,334,47,0.189880452088458,1
546,327,47,0.136423642709098,1
546,328,47,0.167192366348349,1
546,329,47,0.15884213242681,1
546,330,47,0.147098665360722,1
546,331,47,0.178227949537353,1
546,332,47,0.213166225568067,1
546,333,47,0.221666838294864,1
546,334,47,0.177043691420101,1
547,327,47,0.131444089233221,1
547,328,47,0.140261405447451,1
547,329,47,0.134307504718519,1
547,330,47,0.146237234701356,1
547,331,47,0.20103657150362,1
547,332,47,0.221393732766323,1
547,333,47,0.188739850814427,1
547,334,47,0.141956567576742,1
547,335,47,0.126488301473456,1
547,336,47,0.144258650508681,1
547,337,47,0.140721892695036,1
548,326,47,0.123723399474413,1
548,327,47,0.135388173520159,1
548,328,47,0.123352604840254,1
548,331,47,0.116457520513652,1
548,332,47,0.123996940747006,1
548,333,47,0.119162301610444,1
548,334,47,0.117727255126211,1
548,335,47,0.131288929020262,1
548,336,47,0.14080299997296,1
548,337,47,0.130021749987681,1
549,323,47,0.124593815882734,1
549,324,47,0.136909214681814,1
550,323,47,0.121915038106642,1
550,324,47,0.148555628593063,1
550,325,47,0.137083123665858,1
550,326,47,0.120813759789049,1
551,325,47,0.149885013033222,1
551,326,47,0.17772215668527,1
551,327,47,0.158276100903813,1
551,328,47,0.136442108835391,1
551,329,47,0.125879307942347,1
551,330,47,0.127164929547489,1
551,331,47,0.132487613798681,1
552,326,47,0.122409725373842,1
552,327,47,0.121774057240658,1
552,329,47,0.114598871926956,1
552,330,47,0.135245284801841,1
552,331,47,0.156305101013008,1
530,317,48,0.230497886335151,1
530,318,48,0.189312948457179,1
530,319,48,0.152422068000756,1
530,320,48,0.138911588144332,1
530,321,48,0.118837118779306,1
531,318,48,0.239225227291163,1
531,319,48,0.203325829428203,1
531,320,48,0.209571148712708,1
531,321,48,0.200772793253156,1
531,322,48,0.161654660073003,1
531,323,48,0.117752163198348,1
531,330,48,0.115652336167538,1
531,331,48,0.12303713792378,1
531,332,48,0.114630740127053,1
532,315,48,0.251805110952683,1
532,316,48,0.249596218363451,1
532,317,48,0.237409328728987,1
532,318,48,0.200712990326294,1
532,319,48,0.170948880486383,1
532,320,48,0.180559839717792,1
532,321,48,0.207027934444121,1
532,322,48,0.214376157253763,1
532,323,48,0.178939672672837,1
532,324,48,0.143023021700807,1
532,325,48,0.148188473010579,1
532,332,48,0.175427775823865,1
533,314,48,0.263647998323728,1
533,317,48,0.242457835756808,1
533,318,48,0.22146041338308,1
533,319,48,0.179525371562486,1
533,320,48,0.158850753092911,1
533,321,48,0.171193839304566,1
533,322,48,0.190401413544282,1
533,323,48,0.179185126119403,1
533,324,48,0.155347606455569,1
533,333,48,0.128945426849691,1
534,313,48,0.188953954243012,1
534,314,48,0.213411490584772,1
534,315,48,0.221556347735624,1
534,316,48,0.219821002938658,1
534,319,48,0.243035585261732,1
534,320,48,0.184292800123309,1
534,321,48,0.15914184189623,1
534,322,48,0.151099749680352,1
534,323,48,0.143105848401206,1
534,324,48,0.142920786724815,1
534,343,48,0.156008842165402,1
535,313,48,0.163663722795557,1
535,314,48,0.158340661684644,1
535,315,48,0.154895457229295,1
535,316,48,0.174477995113825,1
535,317,48,0.233278922640969,1
535,320,48,0.188998329475075,1
535,321,48,0.150643937848672,1
535,322,48,0.127302000493875,1
535,324,48,0.117837309941399,1
535,325,48,0.152702828492366,1
535,344,48,0.177629272541087,1
536,312,48,0.148146358936837,1
536,313,48,0.164637728519491,1
536,314,48,0.144514349828892,1
536,315,48,0.1325438365582,1
536,316,48,0.157268107143857,1
536,317,48,0.201557792050502,1
536,318,48,0.219208488124538,1
536,319,48,0.185712866433661,1
536,320,48,0.142496077596924,1
536,321,48,0.116987856355018,1
536,325,48,0.142331872750677,1
536,326,48,0.225285798634995,1
536,345,48,0.189788203895052,1
537,312,48,0.128019659169953,1
537,313,48,0.137414265591323,1
537,314,48,0.132027055889898,1
537,315,48,0.154536345246466,1
537,316,48,0.186520924335142,1
537,317,48,0.176685392041043,1
537,318,48,0.157233542041387,1
537,319,48,0.130501221543676,1
537,324,48,0.130289438157744,1
537,325,48,0.186693172781043,1
537,329,48,0.173163720393076,1
537,330,48,0.152375902685022,1
538,314,48,0.125782466771101,1
538,315,48,0.191225829512996,1
538,316,48,0.227201141055861,1
538,317,48,0.161010441934915,1
538,318,48,0.117746639848073,1
538,323,48,0.141180165891765,1
538,324,48,0.185366485243257,1
538,325,48,0.221436600559505,1
538,326,48,0.309761448739211,1
538,328,48,0.196997389021643,1
538,329,48,0.157703497889444,1
538,330,48,0.156967702839327,1
538,331,48,0.140085011544626,1
538,332,48,0.131925904385601,1
538,333,48,0.136071290647501,1
539,315,48,0.158825409276722,1
539,316,48,0.186668523799963,1
539,317,48,0.139861368854372,1
539,321,48,0.125213938552457,1
539,322,48,0.123902702263203,1
539,323,48,0.142630581186466,1
539,324,48,0.181827289618297,1
539,325,48,0.202792337386679,1
539,326,48,0.243853912590591,1
539,327,48,0.230403365206558,1
539,328,48,0.189438748942555,1
539,329,48,0.220691172032788,1
539,330,48,0.265005659019775,2
539,331,48,0.215963137089601,1
539,332,48,0.149271544292935,1
539,336,48,0.152792874411781,1
540,316,48,0.129420658733832,1
540,317,48,0.13026685012826,1
540,318,48,0.120354049814637,1
540,321,48,0.135146041149878,1
540,322,48,0.127992431055163,1
540,323,48,0.124685522340291,1
540,324,48,0.141985114700553,1
540,325,48,0.171416492738055,1
540,326,48,0.211875198381312,4
540,327,48,0.197204261454345,1
540,328,48,0.17647930865838,1
540,329,48,0.243797171648956,2
540,330,48,0.341003072443085,2
540,331,48,0.29884283338589,2
540,332,48,0.199305937453158,1
540,333,48,0.141641371528192,1
540,334,48,0.12969522459379,1
540,335,48,0.148797325219292,1
540,336,48,0.186311837851583,1
540,337,48,0.16529425348282,1
540,338,48,0.1349211501118,1
540,339,48,0.146526015238888,1
540,340,48,0.208720929630021,1
541,317,48,0.12625515485213,1
541,318,48,0.129349149601909,1
541,322,48,0.114385027589429,1
541,323,48,0.120736374000862,1
541,324,48,0.136195795677589,1
541,325,48,0.172775978848371,1
541,326,48,0.205581664606343,1
541,327,48,0.189860031002365,1
541,328,48,0.178440463088993,1
541,329,48,0.215625588548891,1
541,330,48,0.284414311473994,2
541,331,48,0.260467043193494,1
541,332,48,0.216738478856615,1
541,333,48,0.229572954812918,3
541,334,48,0.24924098096962,3
541,335,48,0.231267363222769,1
541,336,48,0.208273832679372,1
541,337,48,0.151891284638472,1
541,338,48,0.120202787744409,1
541,339,48,0.123249969450809,1
541,340,48,0.154367076347728,1
541,341,48,0.212013600113586,1
541,343,48,0.206542774661724,1
541,344,48,0.202539912035288,1
541,347,48,0.166472481844547,1
541,348,48,0.139388574781546,1
542,323,48,0.133925993136065,1
542,324,48,0.145750673471874,1
542,325,48,0.168496289203657,1
542,326,48,0.175504761198599,1
542,327,48,0.18741984075981,1
542,328,48,0.232644832607863,1
542,329,48,0.233661812116775,1
542,330,48,0.222131529883704,1
542,331,48,0.208280027311024,1
542,332,48,0.248465992508594,3
542,333,48,0.328067762957874,3
542,334,48,0.351667543022541,3
542,335,48,0.26406518203408,3
542,336,48,0.169983071461365,1
542,337,48,0.116041973787711,1
542,338,48,0.118354597014951,1
542,339,48,0.122205420297985,1
542,340,48,0.125358864668638,1
542,341,48,0.164324781852396,1
542,342,48,0.206968390608317,1
542,343,48,0.184156930417281,1
542,344,48,0.152409266547133,1
542,345,48,0.14237615376781,1
542,346,48,0.120398354385502,1
543,322,48,0.123872306171389,1
543,323,48,0.151346828334462,1
543,324,48,0.144446621071037,1
543,325,48,0.141643632686513,1
543,326,48,0.138182682560977,1
543,327,48,0.1766962620886,1
543,328,48,0.265578485794603,1
543,329,48,0.257251911597377,1
543,330,48,0.20390687645568,1
543,331,48,0.21537643716632,1
543,332,48,0.271339022156431,1
543,333,48,0.278622142449394,3
543,334,48,0.243379823062477,3
543,335,48,0.16677829173069,1
543,342,48,0.13475733390214,1
543,343,48,0.125387058486462,1
544,314,48,0.130545985412326,1
544,315,48,0.148005260302191,1
544,316,48,0.122266660002531,1
544,319,48,0.114663786013775,1
544,320,48,0.114505563815588,1
544,323,48,0.123281260584459,1
544,327,48,0.142503497022667,1
544,328,48,0.226529906786575,1
544,329,48,0.241014863441583,1
544,330,48,0.19556435638154,1
544,331,48,0.215954351547372,1
544,332,48,0.252176105793568,1
544,333,48,0.212336663108797,1
544,334,48,0.151329469233596,1
545,314,48,0.126285103423026,1
545,315,48,0.149610800479253,1
545,316,48,0.127804024748755,1
545,319,48,0.117207282927152,1
545,320,48,0.121446530813134,1
545,321,48,0.122362205718488,1
545,326,48,0.114592959940094,1
545,327,48,0.141539690064913,1
545,328,48,0.208911102466368,1
545,329,48,0.228382831816269,1
545,330,48,0.182229446047302,1
545,331,48,0.187695843397451,1
545,332,48,0.236519091854752,1
545,333,48,0.247892600444186,1
545,334,48,0.187683524795344,1
546,315,48,0.135118353737304,1
546,316,48,0.131483647726985,1
546,317,48,0.131115703094461,1
546,318,48,0.144908992617224,1
546,319,48,0.15615790196164,1
546,320,48,0.159747596789117,1
546,321,48,0.159119760271995,1
546,322,48,0.118765880515307,1
546,326,48,0.125488257098224,1
546,327,48,0.147730117375786,1
546,328,48,0.181663426301172,1
546,329,48,0.187144108990092,1
546,330,48,0.171648614772015,1
546,331,48,0.196437257708642,1
546,332,48,0.234674716829962,1
546,333,48,0.24118894907862,1
546,334,48,0.182364620918221,1
547,315,48,0.166986188750756,1
547,316,48,0.159976397746793,1
547,317,48,0.152415732046709,1
547,318,48,0.172835275369984,1
547,319,48,0.188587363950108,1
547,320,48,0.174629433837047,1
547,321,48,0.15924414753342,1
547,322,48,0.116052938050198,1
547,326,48,0.127139279532777,1
547,327,48,0.15188017905359,1
547,328,48,0.150231229347498,1
547,329,48,0.139264741032835,1
547,330,48,0.153720184860999,1
547,331,48,0.199677144277635,1
547,332,48,0.204286680392526,1
547,333,48,0.167173723569061,1
547,334,48,0.130546703801167,1
548,316,48,0.154523308255517,1
548,317,48,0.126376798103717,1
548,318,48,0.124374165550141,1
548,319,48,0.126562519284619,1
548,320,48,0.114389820773996,1
548,326,48,0.138412378560488,1
548,327,48,0.171129690714054,1
548,328,48,0.150466036506966,1
549,323,48,0.132237060969025,1
549,324,48,0.14230687046361,1
549,325,48,0.119645789077833,1
549,327,48,0.12910735876075,1
549,328,48,0.122077429315484,1
550,323,48,0.143401589066697,1
550,324,48,0.160977608031785,1
550,325,48,0.143132817424938,1
550,326,48,0.116959933405119,1
551,324,48,0.122578758735255,1
551,325,48,0.150805657776138,1
551,326,48,0.161678555334642,1
551,327,48,0.133784423426768,1
552,331,48,0.145550031001423,1
530,318,49,0.154763497442865,1
530,319,49,0.134932620779536,1
530,320,49,0.125712205987001,1
531,317,49,0.225942076284133,1
531,318,49,0.189084995433873,1
531,319,49,0.175518516578389,1
531,320,49,0.184847148994976,1
531,321,49,0.169870578834861,1
531,322,49,0.137431589361589,1
531,329,49,0.115724752118164,1
531,330,49,0.115603426841965,1
531,331,49,0.116421801278289,1
532,317,49,0.240355853559473,1
532,318,49,0.186166817520472,1
532,319,49,0.153102617771254,1
532,320,49,0.154650898824565,1
532,321,49,0.166483328338372,1
532,322,49,0.178372333917686,1
532,323,49,0.161411785760148,1
532,324,49,0.139332128261568,1
532,325,49,0.156213288563655,1
532,331,49,0.187366373786995,1
532,332,49,0.142854588959574,1
533,319,49,0.179187222401597,1
533,320,49,0.147488102774168,1
533,321,49,0.149129421070924,1
533,322,49,0.169809150700455,1
533,323,49,0.172952078329539,1
533,324,49,0.166933487274248,1
533,333,49,0.11834238440464,1
534,314,49,0.208617057669618,1
534,320,49,0.209907802211582,1
534,321,49,0.179628831332569,1
534,322,49,0.16631542555612,1
534,323,49,0.152008641110741,1
534,324,49,0.153606526324735,1
534,342,49,0.128083972636593,1
534,343,49,0.114811138164405,1
535,313,49,0.16331782445667,1
535,314,49,0.158118290895945,1
535,315,49,0.175592805050749,1
535,316,49,0.210364438423901,1
535,321,49,0.190005192655871,1
535,322,49,0.154579648783699,1
535,323,49,0.126215313713577,1
535,324,49,0.128050667658813,1
535,325,49,0.159848924946408,1
535,344,49,0.126212145736553,1
536,313,49,0.171140702084006,1
536,314,49,0.155550663183603,1
536,315,49,0.161301259870309,1
536,316,49,0.205430002122662,1
536,320,49,0.186601489877218,1
536,321,49,0.147534362304833,1
536,322,49,0.120740754995111,1
536,324,49,0.11441936893144,1
536,325,49,0.146157905730237,1
536,345,49,0.146817068711608,1
536,346,49,0.114896673544043,1
537,312,49,0.159064997843891,1
537,313,49,0.16185437217102,1
537,314,49,0.154708911667756,1
537,315,49,0.179218395766584,1
537,316,49,0.22536303132392,1
537,317,49,0.233655641038855,1
537,318,49,0.206104463253304,1
537,319,49,0.161718408250062,1
537,320,49,0.139253482348692,1
537,321,49,0.122804745021895,1
537,323,49,0.123093443121363,1
537,324,49,0.148294158608385,1
537,325,49,0.181088844773271,1
537,346,49,0.218610011334998,1
537,347,49,0.183048491765003,1
538,313,49,0.127511805366275,1
538,314,49,0.141047570154557,1
538,315,49,0.199144146864494,1
538,316,49,0.247955394695078,1
538,317,49,0.194335534602364,1
538,318,49,0.148238065394395,1
538,319,49,0.125511799053875,1
538,320,49,0.123932921702023,1
538,321,49,0.122707338561069,1
538,322,49,0.119671274216417,1
538,323,49,0.154965082062617,1
538,324,49,0.201319192740099,1
538,325,49,0.222746211641216,1
538,326,49,0.295892587065666,1
538,328,49,0.198498963023372,1
538,329,49,0.156105259369463,1
538,330,49,0.168711334781542,1
538,331,49,0.159678855220765,1
538,347,49,0.234529955589908,1
538,348,49,0.173089113945327,1
539,314,49,0.114895872717137,1
539,315,49,0.159909269609118,1
539,316,49,0.20254236162347,1
539,317,49,0.161118930426891,1
539,318,49,0.128088612721899,1
539,319,49,0.122749099328822,1
539,320,49,0.140383048699038,1
539,321,49,0.152896746372183,1
539,322,49,0.134127577755817,1
539,323,49,0.145802762551337,1
539,324,49,0.188813891972596,1
539,325,49,0.23047972640738,1
539,326,49,0.297898069620876,4
539,327,49,0.272986087563921,1
539,328,49,0.19564808990064,1
539,329,49,0.220365376804605,1
539,330,49,0.282152093234341,2
539,331,49,0.228572180271978,1
539,332,49,0.155213232411556,1
539,335,49,0.125473924651987,1
539,347,49,0.207737325760086,1
539,348,49,0.15275872149963,1
540,316,49,0.1456305612129,1
540,317,49,0.155344462032278,1
540,318,49,0.141869489427625,1
540,319,49,0.129225080315873,1
540,320,49,0.14617426379747,1
540,321,49,0.168406054854382,1
540,322,49,0.151244840672661,1
540,323,49,0.149379373280401,1
540,324,49,0.183928824294714,1
540,325,49,0.251661079878338,4
540,326,49,0.313904550289056,4
540,327,49,0.256368151999585,4
540,328,49,0.201416610977792,1
540,329,49,0.277675211740989,2
540,330,49,0.378557496875126,2
540,331,49,0.295882694498008,2
540,332,49,0.182896075561881,1
540,333,49,0.137888190243309,1
540,334,49,0.146198889224817,1
540,335,49,0.175531164932751,1
540,336,49,0.198172272753353,1
540,337,49,0.165032547960817,1
540,338,49,0.138717305181661,1
540,339,49,0.14508975573743,1
540,340,49,0.183407686185896,1
540,343,49,0.202047309273415,1
540,344,49,0.196441768248419,1
540,347,49,0.167025794351985,1
540,348,49,0.142038405020374,1
541,316,49,0.129080012877297,1
541,317,49,0.169071718665928,1
541,318,49,0.167958109969362,1
541,319,49,0.136850942747566,1
541,320,49,0.127186481212742,1
541,321,49,0.139742893579808,1
541,322,49,0.145882715696368,1
541,323,49,0.166075471906097,1
541,324,49,0.206500943232772,4
541,325,49,0.269011819168762,4
541,326,49,0.29645424937128,4
541,327,49,0.233232003605794,1
541,328,49,0.208807395382093,1
541,329,49,0.257096433409029,2
541,330,49,0.322069569434943,2
541,331,49,0.276570518132181,2
541,332,49,0.239946301258457,3
541,333,49,0.27630462004579,3
541,334,49,0.31357171249485,3
541,335,49,0.29029589046723,1
541,336,49,0.222033923216151,1
541,337,49,0.137314939501296,1
541,340,49,0.134232132774463,1
541,341,49,0.166195548834472,1
541,342,49,0.175110895683439,1
541,343,49,0.154818848714282,1
541,344,49,0.156194433800774,1
541,345,49,0.170528375699746,1
541,346,49,0.14836956588304,1
541,347,49,0.114345257112073,1
542,316,49,0.121256840828304,1
542,317,49,0.141329979407443,1
542,318,49,0.146698287238522,1
542,319,49,0.134613149728534,1
542,320,49,0.123310325890385,1
542,321,49,0.127295699870426,1
542,322,49,0.15013858074064,1
542,323,49,0.189039407184586,1
542,324,49,0.203661446562846,1
542,325,49,0.22406774091158,1
542,326,49,0.223468015774217,1
542,327,49,0.216879023978548,1
542,328,49,0.260958044301556,1
542,329,49,0.256817415893625,1
542,330,49,0.241795175046158,2
542,331,49,0.247471577475434,3
542,332,49,0.313580969111729,3
542,333,49,0.398567688104112,3
542,334,49,0.401538426171626,3
542,335,49,0.292872315498667,3
542,336,49,0.171924970715644,1
542,338,49,0.118485343784156,1
542,339,49,0.122823576231043,1
542,340,49,0.1261289892839,1
542,341,49,0.147956021224363,1
542,342,49,0.160365764499042,1
542,343,49,0.134466857495867,1
543,314,49,0.124023697787146,1
543,315,49,0.136570205809688,1
543,316,49,0.130111525039172,1
543,317,49,0.125866223843933,1
543,318,49,0.132611223786933,1
543,319,49,0.143556054444547,1
543,320,49,0.142127391021826,1
543,321,49,0.145019765821254,1
543,322,49,0.17923361147779,1
543,323,49,0.220013766685582,1
543,324,49,0.183971633203565,1
543,325,49,0.164281866951748,1
543,326,49,0.166059738012775,1
543,327,49,0.20389349793561,1
543,328,49,0.295228536684797,1
543,329,49,0.27966778685078,1
543,330,49,0.209914585686548,1
543,331,49,0.218945086733794,1
543,332,49,0.268351584492562,3
543,333,49,0.274532460764899,3
543,334,49,0.231307993411362,3
543,335,49,0.156397890942261,1
544,314,49,0.14889787610341,1
544,315,49,0.163764780084923,1
544,316,49,0.142650378098647,1
544,317,49,0.127542542987211,1
544,318,49,0.134370122316417,1
544,319,49,0.152431889907216,1
544,320,49,0.156418300251488,1
544,321,49,0.15218240877239,1
544,322,49,0.160279286970103,1
544,323,49,0.171848067778974,1
544,324,49,0.135820313850659,1
544,325,49,0.121365246882216,1
544,326,49,0.126230717854643,1
544,327,49,0.166292401782584,1
544,328,49,0.260294041028152,1
544,329,49,0.275151193764404,1
544,330,49,0.204162505114693,1
544,331,49,0.200800704426189,1
544,332,49,0.220460321900383,1
544,333,49,0.179500345721686,1
544,334,49,0.120818812064674,1
545,314,49,0.145417564809744,1
545,315,49,0.15799717760334,1
545,316,49,0.145688833147149,1
545,317,49,0.138342282652516,1
545,318,49,0.143397785138895,1
545,319,49,0.156262044789966,1
545,320,49,0.168968341333908,1
545,321,49,0.163676170943192,1
545,322,49,0.134201018293807,1
545,323,49,0.121396220040477,1
545,324,49,0.117712981564305,1
545,325,49,0.125321885308585,1
545,326,49,0.121534633549616,1
545,327,49,0.149133696073376,1
545,328,49,0.224074265295488,1
545,329,49,0.246987406949802,1
545,330,49,0.188812184326988,1
545,331,49,0.187306217554145,1
545,332,49,0.23358514471743,1
545,333,49,0.221547821284453,1
545,334,49,0.146001120309733,1
546,315,49,0.168988267791618,1
546,316,49,0.181900753710019,1
546,317,49,0.19152052203739,1
546,318,49,0.201494880030948,1
546,319,49,0.205870386259544,1
546,320,49,0.215456755394205,1
546,321,49,0.201846254612645,1
546,322,49,0.137344899849058,1
546,325,49,0.127332302370759,1
546,326,49,0.124756018661716,1
546,327,49,0.134949650128146,1
546,328,49,0.167721760040414,1
546,329,49,0.184964529020978,1
546,330,49,0.171728697462575,1
546,331,49,0.183846904413018,1
546,332,49,0.220419550389395,1
546,333,49,0.218175468523781,1
546,334,49,0.154983465750847,1
547,316,49,0.24273440368403,5
547,317,49,0.249396529819167,5
547,318,49,0.262053363524822,5
547,319,49,0.253200622496886,1
547,320,49,0.226354808339039,1
547,321,49,0.190292300878394,1
547,322,49,0.125468766384565,1
547,326,49,0.126372523101265,1
547,327,49,0.141157542531681,1
547,328,49,0.130724793572733,1
547,329,49,0.122878126675554,1
547,330,49,0.136496411965711,1
547,331,49,0.155891450362534,1
547,332,49,0.152790566145994,1
547,333,49,0.132038503003902,1
548,317,49,0.187614429921004,1
548,318,49,0.1825731067816,1
548,319,49,0.168901272080564,1
548,320,49,0.148631153636381,1
548,321,49,0.129834438929835,1
548,326,49,0.13946448846145,1
548,327,49,0.172800345184661,1
548,328,49,0.145134166300092,1
549,323,49,0.11515046501192,1
549,324,49,0.12168505946234,1
549,325,49,0.118696820971565,1
549,326,49,0.11630331422686,1
549,327,49,0.134094849844484,1
549,328,49,0.122967642635987,1
550,323,49,0.135368941897558,1
550,324,49,0.139341667523237,1
550,325,49,0.125956929267859,1
551,324,49,0.116209393718446,1
551,325,49,0.121600018711085,1
530,318,50,0.125173237702667,1
530,319,50,0.115661310139627,1
530,327,50,0.1597875674732,1
530,328,50,0.197881549032888,1
530,332,50,0.214530504862951,1
530,333,50,0.257557756814118,1
530,334,50,0.250498679624863,1
530,335,50,0.219757078108605,1
530,336,50,0.181747972424044,1
531,317,50,0.190289274223766,1
531,318,50,0.16012615237814,1
531,319,50,0.15191194126189,1
531,320,50,0.149920661607388,1
531,321,50,0.131850909301265,1
531,332,50,0.116250683411549,1
531,333,50,0.132834089204015,1
531,334,50,0.131273548432928,1
531,335,50,0.118772122254424,1
531,339,50,0.134880437485143,1
531,340,50,0.164192892727163,1
531,341,50,0.150389345553889,1
532,318,50,0.18713898605327,1
532,319,50,0.151418832094768,1
532,320,50,0.140556698592024,1
532,321,50,0.140373215015712,1
532,322,50,0.148294370591978,1
532,323,50,0.145056026792465,1
532,324,50,0.141513875174074,1
532,325,50,0.16358212088925,1
532,329,50,0.142840821802918,1
532,330,50,0.153481020261015,1
532,331,50,0.1461483900223,1
532,332,50,0.114207809305967,1
532,341,50,0.121010139033914,1
532,342,50,0.117731176822675,1
533,319,50,0.183175929234789,1
533,320,50,0.149340980696397,1
533,321,50,0.151758382702742,1
533,322,50,0.174504763930832,1
533,323,50,0.18884218000535,1
533,324,50,0.206840116981026,1
533,331,50,0.225105942333491,1
533,332,50,0.153803270652454,1
534,314,50,0.208684209361026,1
534,320,50,0.221031311484075,1
534,321,50,0.198563194051948,1
534,322,50,0.195882885283242,1
534,323,50,0.186613773148726,1
534,324,50,0.192965378651217,1
535,313,50,0.176952067400607,1
535,314,50,0.170919450097602,1
535,315,50,0.207895065106756,1
535,321,50,0.211590410201442,1
535,322,50,0.175612778615924,1
535,323,50,0.149180038042104,1
535,324,50,0.147172494535299,1
535,325,50,0.176991625894371,1
535,343,50,0.132882374355676,1
536,313,50,0.179943026347488,1
536,314,50,0.177144254081085,1
536,315,50,0.206776333473368,1
536,320,50,0.226794415202747,1
536,321,50,0.17671801396058,1
536,322,50,0.137528300987307,1
536,323,50,0.12283309193898,1
536,324,50,0.134684917951515,1
536,325,50,0.157255081929774,1
536,344,50,0.159613116753308,1
537,313,50,0.192168402780886,1
537,314,50,0.190131334670369,1
537,315,50,0.213120649095645,1
537,319,50,0.18572029763627,1
537,320,50,0.168068753627864,1
537,321,50,0.153655435650308,1
537,322,50,0.130249055283342,1
537,323,50,0.13507785309424,1
537,324,50,0.168653910781665,1
537,325,50,0.188780104143299,1
537,344,50,0.23993407687128,1
537,345,50,0.206864141788194,1
537,346,50,0.179040918392064,1
537,347,50,0.149971184363638,1
537,348,50,0.138832895123991,1
538,313,50,0.153288609820079,1
538,314,50,0.163304787465721,1
538,315,50,0.19914195636737,1
538,316,50,0.243355680486646,1
538,317,50,0.222256034913792,1
538,318,50,0.184144764914435,1
538,319,50,0.156613313379867,1
538,320,50,0.149876298152191,1
538,321,50,0.146983664261705,1
538,322,50,0.133957602245104,1
538,323,50,0.150909388414145,1
538,324,50,0.193042799770003,1
538,325,50,0.212612053349393,1
538,326,50,0.251320775550924,1
538,329,50,0.157938611247435,1
538,330,50,0.172456708004095,1
538,331,50,0.184314669763951,1
538,343,50,0.241005748147099,1
538,344,50,0.250539992871698,1
538,346,50,0.248635555828988,1
538,347,50,0.182869589389665,1
538,348,50,0.143787057676213,1
538,349,50,0.153045240878841,1
539,314,50,0.127472965261354,1
539,315,50,0.163386589578755,1
539,316,50,0.2018562178415,1
539,317,50,0.177363209578568,1
539,318,50,0.160721802719778,1
539,319,50,0.168937544828641,1
539,320,50,0.174505282112947,1
539,321,50,0.166732821250064,1
539,322,50,0.141504536119131,1
539,323,50,0.143126928991809,1
539,324,50,0.178570126386502,1
539,325,50,0.23210919717668,4
539,326,50,0.301073042103051,4
539,327,50,0.270422805515229,1
539,328,50,0.194628849233406,1
539,329,50,0.208192430979791,1
539,330,50,0.268771123576165,2
539,331,50,0.241478212467669,1
539,332,50,0.169965335500779,1
539,342,50,0.219423839900946,1
539,343,50,0.17060101541083,1
539,344,50,0.172707567032274,1
539,345,50,0.208328971967195,1
539,346,50,0.199651329386796,1
539,347,50,0.14751403543367,1
539,348,50,0.115022144277164,1
540,315,50,0.132083997038259,1
540,316,50,0.166789597522298,1
540,317,50,0.173959754114107,1
540,318,50,0.163443907586836,1
540,319,50,0.167344358584285,1
540,320,50,0.180611681483064,1
540,321,50,0.185326832534563,1
540,322,50,0.170258343933298,1
540,323,50,0.176665830666187,1
540,324,50,0.227418895312986,4
540,325,50,0.320201004726857,4
540,326,50,0.376621026756192,4
540,327,50,0.288567234930298,4
540,328,50,0.236933425563469,1
540,329,50,0.303412493031628,2
540,330,50,0.359635982716836,2
540,331,50,0.265084917329696,2
540,332,50,0.15896974654959,1
540,333,50,0.122566416579416,1
540,334,50,0.141104911716371,1
540,335,50,0.170277504894701,1
540,336,50,0.167369843722869,1
540,337,50,0.13909741531703,1
540,338,50,0.123194288427137,1
540,339,50,0.126429817555614,1
540,340,50,0.143370215494983,1
540,341,50,0.165111346972954,1
540,342,50,0.161624947039432,1
540,343,50,0.129367227091616,1
540,344,50,0.125542972418862,1
540,345,50,0.139828770488568,1
540,346,50,0.128730381271805,1
541,314,50,0.117347616065492,1
541,315,50,0.131300175927539,1
541,316,50,0.168990305189481,1
541,317,50,0.210705378702093,1
541,318,50,0.20150444284635,1
541,319,50,0.169476042038325,1
541,320,50,0.157565637893019,1
541,321,50,0.168152192725307,1
541,322,50,0.184725741280714,1
541,323,50,0.230623828142923,4
541,324,50,0.306220050840261,4
541,325,50,0.374182603043576,4
541,326,50,0.363611240368761,4
541,327,50,0.264994023475911,4
541,328,50,0.256220211005642,1
541,329,50,0.305833416320984,2
541,330,50,0.31503063068699,2
541,331,50,0.249147472651526,2
541,332,50,0.224844966977196,3
541,333,50,0.262406928603643,3
541,334,50,0.309407530354402,3
541,335,50,0.289464938337742,1
541,336,50,0.195260560339528,1
541,337,50,0.117539508324313,1
542,314,50,0.139372346259842,1
542,315,50,0.16019594208759,1
542,316,50,0.173424048021727,1
542,317,50,0.196256058844384,1
542,318,50,0.20326190459815,1
542,319,50,0.187140752583209,1
542,320,50,0.163888719825431,1
542,321,50,0.168455211494146,1
542,322,50,0.199144217525692,1
542,323,50,0.257257234740926,4
542,324,50,0.288824441689391,4
542,325,50,0.288130666498085,4
542,326,50,0.260764409066529,4
542,327,50,0.231475531110759,1
542,328,50,0.259468152951155,1
542,329,50,0.252940612843624,1
542,330,50,0.229119757445547,2
542,331,50,0.253981004762659,3
542,332,50,0.328922881216925,3
542,333,50,0.374734325674068,3
542,334,50,0.354616234796419,3
542,335,50,0.262836148271311,3
542,336,50,0.153388124339966,1
543,314,50,0.157822220478199,1
543,315,50,0.185501648337309,1
543,316,50,0.17882668541795,1
543,317,50,0.180254712889893,1
543,318,50,0.199873535299367,1
543,319,50,0.210771470475538,4
543,320,50,0.1916559442225,1
543,321,50,0.196897980493552,1
543,322,50,0.233259373042979,1
543,323,50,0.266169778695724,1
543,324,50,0.215088728323618,1
543,325,50,0.179477003972761,1
543,326,50,0.183915528212708,1
543,327,50,0.211788332215787,1
543,328,50,0.268129637671048,1
543,329,50,0.248159134481355,1
543,330,50,0.1884008772729,1
543,331,50,0.202848065517816,1
543,332,50,0.241827255229847,3
543,333,50,0.22977711856638,3
543,334,50,0.182538211926875,3
543,335,50,0.127073187759332,1
544,314,50,0.154977765747578,1
544,315,50,0.166269036479927,1
544,316,50,0.158530858074724,1
544,317,50,0.161141871762363,1
544,318,50,0.187319360536889,1
544,319,50,0.214448490766324,1
544,320,50,0.208630200652363,1
544,321,50,0.208894614853606,1
544,322,50,0.213470115825009,1
544,323,50,0.203740563550373,1
544,324,50,0.144695218940894,1
544,325,50,0.12601232764674,1
544,326,50,0.140350780085489,1
544,327,50,0.182028968452979,1
544,328,50,0.257639794464477,1
544,329,50,0.260278330688563,1
544,330,50,0.183308360095869,1
544,331,50,0.161604290416015,1
544,332,50,0.163835665042935,1
544,333,50,0.127313200293687,1
545,314,50,0.176861856605065,1
545,315,50,0.162912087860321,1
545,316,50,0.154944154571275,1
545,317,50,0.159111563573079,1
545,318,50,0.187920004269821,1
545,319,50,0.228164606484493,1
545,320,50,0.237240872434021,1
545,321,50,0.211992001340867,1
545,322,50,0.166004210088365,1
545,323,50,0.141416798465503,1
545,324,50,0.125054468006447,1
545,325,50,0.126269546182698,1
545,326,50,0.119403644930686,1
545,327,50,0.148279508186759,1
545,328,50,0.213130094142385,1
545,329,50,0.221541367561743,1
545,330,50,0.164853598478014,1
545,331,50,0.157003822488143,1
545,332,50,0.181749950937575,1
545,333,50,0.151037249851117,1
546,314,50,0.219556117662765,5
546,315,50,0.227218617925389,5
546,316,50,0.24070656863666,5
546,317,50,0.24340080943815,5
546,318,50,0.244618702285438,5
546,319,50,0.25543853328458,1
546,320,50,0.266790725746086,1
546,321,50,0.221305147178324,1
546,322,50,0.141980792590636,1
546,324,50,0.116619216887386,1
546,325,50,0.123576094431248,1
546,328,50,0.136703284398413,1
546,329,50,0.151754932080928,1
546,330,50,0.143538094723502,1
546,331,50,0.14966082860712,1
546,332,50,0.172808494776112,1
546,333,50,0.15591082330753,1
547,315,50,0.286174623227429,5
547,316,50,0.337197778525007,5
547,317,50,0.356138088561846,5
547,318,50,0.332217365337894,5
547,319,50,0.278130222745764,5
547,320,50,0.243542697122836,1
547,321,50,0.184701716473546,1
547,322,50,0.116545811679994,1
548,316,50,0.238979444092342,5
548,317,50,0.254611467520957,5
548,318,50,0.248124698924414,5
548,319,50,0.205582983615364,1
548,320,50,0.177903932615975,1
548,321,50,0.136573303125514,1
548,326,50,0.116449359145335,1
548,327,50,0.13155367297376,1
549,318,50,0.117551720934623,1
549,320,50,0.118615065965997,1
549,321,50,0.11386486696051,1
529,327,51,0.229329597648546,1
529,333,51,0.286998721220754,1
529,334,51,0.218068605239349,1
529,335,51,0.159331449442997,1
529,336,51,0.124004254180952,1
530,326,51,0.133266783047229,1
530,327,51,0.180061419183988,1
530,328,51,0.209752206254571,1
530,332,51,0.253900097691461,1
530,333,51,0.30956263168303,1
530,334,51,0.268957598476507,1
530,335,51,0.196114076944768,1
530,336,51,0.145453284045107,1
530,337,51,0.126901681256006,1
530,338,51,0.133769396145422,1
530,339,51,0.159109573282681,1
530,340,51,0.162381575365961,1
530,341,51,0.124289466328008,1
531,318,51,0.149054849953773,1
531,319,51,0.132039103624081,1
531,320,51,0.114454817298879,1
531,332,51,0.140176659117852,1
531,333,51,0.181608345897679,1
531,334,51,0.1747876678121,1
531,335,51,0.136914113858178,1
531,338,51,0.139761877888218,1
531,339,51,0.179676162558063,1
531,340,51,0.193775839033415,1
531,341,51,0.159179386545863,1
531,342,51,0.126616881299269,1
531,343,51,0.115062633143361,1
532,318,51,0.207562368634945,1
532,319,51,0.158539726055016,1
532,320,51,0.129206449313451,1
532,321,51,0.120073607298416,1
532,322,51,0.122984471777871,1
532,323,51,0.126366422684543,1
532,324,51,0.13795265680921,1
532,325,51,0.161725368378021,1
532,328,51,0.139780532444371,1
532,329,51,0.122866220263766,1
532,330,51,0.119614344844922,1
532,339,51,0.127753619761167,1
532,340,51,0.143465820095272,1
532,341,51,0.145361836678607,1
532,342,51,0.146106264171692,1
532,343,51,0.138732438454804,1
532,344,51,0.115038137261543,1
533,319,51,0.194578373584621,1
533,320,51,0.158056273918227,1
533,321,51,0.159308296123932,1
533,322,51,0.182491245784235,1
533,323,51,0.204901409257502,1
533,324,51,0.244841968115972,1
533,330,51,0.186914471874912,1
533,331,51,0.159446780294269,1
533,332,51,0.122959775689326,1
533,342,51,0.117046634694516,1
534,314,51,0.208111382586198,1
534,320,51,0.224372431995428,1
534,321,51,0.206135224427972,1
534,322,51,0.220026556362339,1
534,323,51,0.227208112960686,1
535,314,51,0.185988562872779,1
535,321,51,0.213507377829851,1
535,322,51,0.186749477978626,1
535,323,51,0.175265879243405,1
535,324,51,0.171604910821329,1
535,342,51,0.138634290051403,1
536,313,51,0.193984336673661,1
536,314,51,0.203752646615154,1
536,321,51,0.199373889971471,1
536,322,51,0.153237286236923,1
536,323,51,0.142298073144515,1
536,324,51,0.153978392653723,1
536,325,51,0.166252843288821,1
536,343,51,0.175629278005553,1
536,344,51,0.116437464510414,1
537,313,51,0.223919658595242,1
537,314,51,0.233639977806731,1
537,320,51,0.190101350768874,1
537,321,51,0.181139862157904,1
537,322,51,0.150159743769308,1
537,323,51,0.143428122346378,1
537,324,51,0.176008445991621,1
537,325,51,0.190395454449955,1
537,326,51,0.184029504724361,1
537,330,51,0.19279321264338,1
537,343,51,0.249402441806029,1
537,344,51,0.200537562126503,1
537,345,51,0.167320651752506,1
537,346,51,0.137114591452501,1
537,347,51,0.114527268580103,1
538,313,51,0.183180015807381,1
538,314,51,0.198067906164568,1
538,315,51,0.22053383309957,1
538,318,51,0.216503294837427,1
538,319,51,0.186748123639006,1
538,320,51,0.170537067027045,1
538,321,51,0.168484323907538,1
538,322,51,0.14903310985866,1
538,323,51,0.139734802872689,1
538,324,51,0.164362055634105,1
538,325,51,0.187692651866695,1
538,326,51,0.193266619113251,1
538,327,51,0.203984486004325,1
538,329,51,0.16953076913583,1
538,330,51,0.180435358241437,1
538,331,51,0.226015658144518,1
538,342,51,0.207247949859568,1
538,343,51,0.226452791866312,1
538,344,51,0.224601704027754,1
538,345,51,0.215601469526793,1
538,346,51,0.174267495406316,1
538,347,51,0.135946691402483,1
538,348,51,0.134186744731902,1
539,313,51,0.132545921063528,1
539,314,51,0.155996535340162,1
539,315,51,0.178839851954427,1
539,316,51,0.196781848815374,1
539,317,51,0.194848582004063,1
539,318,51,0.206415278307606,1
539,319,51,0.224292160875008,1
539,320,51,0.201467015965379,1
539,321,51,0.17353858982296,1
539,322,51,0.149423124338552,1
539,323,51,0.140551128134283,1
539,324,51,0.158181120477436,1
539,325,51,0.2059024428895,4
539,326,51,0.248238510559939,4
539,327,51,0.224457696507142,1
539,328,51,0.185161744423348,1
539,329,51,0.191223403478547,1
539,330,51,0.237905346782075,1
539,331,51,0.253691435175088,1
539,332,51,0.193717567099167,1
539,333,51,0.128359339323456,1
539,339,51,0.151722581029315,1
539,340,51,0.153190355424882,1
539,341,51,0.159214246069989,1
539,342,51,0.152901798647808,1
539,343,51,0.142948203269465,1
539,344,51,0.145759353022307,1
539,345,51,0.15566097708985,1
539,346,51,0.135124041963707,1
540,314,51,0.147947541880656,1
540,315,51,0.179000971261714,1
540,316,51,0.195588345858109,1
540,317,51,0.18982906962097,1
540,318,51,0.189722948279112,1
540,319,51,0.211942962469765,1
540,320,51,0.207372478443388,1
540,321,51,0.191529613778142,1
540,322,51,0.183372708893107,1
540,323,51,0.198114448340022,4
540,324,51,0.250649941695091,4
540,325,51,0.335484574236607,4
540,326,51,0.360870928466466,4
540,327,51,0.281438862659976,4
540,328,51,0.253704601711565,1
540,329,51,0.286265893940934,1
540,330,51,0.284610584727063,2
540,331,51,0.217559020236331,1
540,332,51,0.137009541805473,1
540,334,51,0.124606028493044,1
540,335,51,0.140340934625296,1
540,336,51,0.122495248976614,1
540,341,51,0.115433451331252,1
541,313,51,0.118408440847486,1
541,314,51,0.154445498500145,1
541,315,51,0.195819054668119,4
541,316,51,0.224957718694758,4
541,317,51,0.235976743609802,1
541,318,51,0.220387517313171,1
541,319,51,0.208909830564812,1
541,320,51,0.195739337060413,1
541,321,51,0.199527295431358,1
541,322,51,0.225781180737305,4
541,323,51,0.296267703809741,4
541,324,51,0.392478624281128,4
541,325,51,0.438763687191735,4
541,326,51,0.384139472390739,4
541,327,51,0.281576510672809,4
541,328,51,0.280855130506992,1
541,329,51,0.302830904268304,1
541,330,51,0.253846159643996,2
541,331,51,0.197453436390649,1
541,332,51,0.187997637372199,1
541,333,51,0.211849147953148,1
541,334,51,0.250811331870301,1
541,335,51,0.2331269068513,1
541,336,51,0.150394291837718,1
542,314,51,0.171047653063695,1
542,315,51,0.224985794743919,4
542,316,51,0.250178914152204,4
542,317,51,0.264133841164368,4
542,318,51,0.270805765652233,4
542,319,51,0.263304608457354,4
542,320,51,0.229129932657994,4
542,321,51,0.22816700896521,1
542,322,51,0.260323247656474,4
542,323,51,0.331534519078476,4
542,324,51,0.377380634629885,4
542,325,51,0.343437680451033,4
542,326,51,0.285064488706409,4
542,327,51,0.232252874945037,1
542,328,51,0.22687546359634,1
542,329,51,0.215865389099653,1
542,330,51,0.192758706425242,1
542,331,51,0.232314279525711,1
542,332,51,0.29581094982876,3
542,333,51,0.29613212852537,3
542,334,51,0.264416297524719,3
542,335,51,0.206422391534826,1
542,336,51,0.133596287988284,1
543,314,51,0.171407400997303,1
543,315,51,0.223687913421002,1
543,316,51,0.243544816958763,4
543,317,51,0.266074197649168,4
543,318,51,0.299106917834877,4
543,319,51,0.305335961490213,4
543,320,51,0.265245365355606,4
543,321,51,0.266469971016661,4
543,322,51,0.279653913702327,4
543,323,51,0.28117002035702,4
543,324,51,0.236953116483854,4
543,325,51,0.193804174173634,4
543,326,51,0.196587506968372,1
543,327,51,0.202094298969788,1
543,328,51,0.208764786679969,1
543,329,51,0.187206231959607,1
543,330,51,0.157741855142849,1
543,331,51,0.183839885400728,1
543,332,51,0.212936364692427,1
543,333,51,0.182496568927784,1
543,334,51,0.13584908473493,1
544,314,51,0.148969208582339,1
544,315,51,0.161777999193332,1
544,316,51,0.17502703261881,1
544,317,51,0.20519646686475,1
544,318,51,0.255422705176328,4
544,319,51,0.286045831418022,4
544,320,51,0.26235946783262,4
544,321,51,0.270147627258226,4
544,322,51,0.260592702356476,1
544,323,51,0.210496292218535,1
544,324,51,0.14389695939214,1
544,325,51,0.129171048053477,1
544,326,51,0.156905721192207,1
544,327,51,0.188487060380182,1
544,328,51,0.22768528802776,1
544,329,51,0.21100884499185,1
544,330,51,0.150228932858578,1
544,331,51,0.127154766111907,1
544,332,51,0.120848748858704,1
545,314,51,0.218383424428179,5
545,315,51,0.182068962690793,5
545,316,51,0.16504534941444,5
545,317,51,0.177003438091228,1
545,318,51,0.240055614131071,1
545,319,51,0.309824973155811,4
545,320,51,0.288104474747525,1
545,321,51,0.241870758973807,1
545,322,51,0.195380955243292,1
545,323,51,0.15683614346635,1
545,324,51,0.125729989055052,1
545,325,51,0.121324887561547,1
545,326,51,0.12531771629793,1
545,327,51,0.14875515226122,1
545,328,51,0.193074455986506,1
545,329,51,0.181474619581311,1
545,330,51,0.13460497658335,1
545,331,51,0.120336643606306,1
545,332,51,0.122836000824946,1
546,313,51,0.298245463621778,5
546,314,51,0.319276662047937,5
546,315,51,0.312707149189059,5
546,316,51,0.301379593931767,5
546,317,51,0.280088173868754,5
546,318,51,0.275190858249963,5
546,319,51,0.301052715231888,1
546,320,51,0.284081709217113,1
546,321,51,0.205231326388876,1
546,322,51,0.133993557017792,1
546,328,51,0.115337516978708,1
546,329,51,0.122101124370397,1
546,330,51,0.117622864983693,1
546,331,51,0.118870847724271,1
546,332,51,0.123498767527392,1
547,314,51,0.260682135878845,5
547,315,51,0.356114322845736,5
547,316,51,0.43154173594212,5
547,317,51,0.436417358573262,5
547,318,51,0.355593667588434,5
547,319,51,0.26495313419626,5
547,320,51,0.222066356705828,1
547,321,51,0.154375956104887,1
548,315,51,0.207654864142542,5
548,316,51,0.274050056769206,5
548,317,51,0.313315683422384,5
548,318,51,0.287996080470479,5
548,319,51,0.21787000016676,1
548,320,51,0.185003074704243,1
548,321,51,0.12913786084436,1
549,319,51,0.129111657316934,1
549,320,51,0.135789988420043,1
528,331,52,0.231681155195638,1
528,332,52,0.157678130519523,1
529,332,52,0.264699978679161,1
529,333,52,0.230341371782572,1
529,334,52,0.158674500512482,1
530,325,52,0.117151060167633,1
530,326,52,0.140518635760275,1
530,327,52,0.173913365037913,1
530,331,52,0.196237840032282,1
530,332,52,0.272179160241601,1
530,333,52,0.314969555858572,1
530,334,52,0.245024226898193,1
530,335,52,0.158383623692756,1
530,336,52,0.114089569568728,1
530,338,52,0.128571181593719,1
530,339,52,0.147720366130524,1
530,340,52,0.140918860783214,1
531,318,52,0.138010351677012,1
531,319,52,0.113950261017753,1
531,332,52,0.168455564800134,1
531,333,52,0.218851319324641,1
531,334,52,0.197979697436289,1
531,335,52,0.144784452256537,1
531,337,52,0.127588908509672,1
531,338,52,0.171661993292085,1
531,339,52,0.211151698379569,1
531,340,52,0.208551696061882,1
531,341,52,0.169486723656022,1
531,342,52,0.137134329480351,1
531,343,52,0.118787102428305,1
532,319,52,0.170811997969857,1
532,320,52,0.124309439893183,1
532,324,52,0.124757314117005,1
532,325,52,0.142335853331473,1
532,326,52,0.137918303690333,1
532,327,52,0.125489528999779,1
532,338,52,0.130401129957342,1
532,339,52,0.168435355697634,1
532,340,52,0.186508429080041,1
532,341,52,0.186347215557824,1
532,342,52,0.176960629182377,1
532,343,52,0.150707085405551,1
533,320,52,0.180506419852442,1
533,321,52,0.162041153269885,1
533,322,52,0.172325160407985,1
533,323,52,0.196641492123302,1
533,324,52,0.243166002278682,1
533,328,52,0.176673897819574,1
533,329,52,0.151251906792416,1
533,330,52,0.133108219319921,1
533,331,52,0.115145118314638,1
533,341,52,0.125763965314208,1
533,342,52,0.125824863489632,1
534,314,52,0.212553192571831,1
534,321,52,0.207199546939244,1
534,322,52,0.219658317308159,1
534,323,52,0.244854969776322,1
534,330,52,0.182810328198651,1
534,331,52,0.162405564842531,1
534,332,52,0.158704743505035,1
534,333,52,0.149335963751371,1
535,321,52,0.2140411054087,1
535,322,52,0.189110986977707,1
535,323,52,0.195889456774614,1
535,324,52,0.19768612371419,1
535,341,52,0.136126276836063,1
536,313,52,0.201750744227286,1
536,321,52,0.213115184629701,1
536,322,52,0.16514063603934,1
536,323,52,0.162183841781476,1
536,324,52,0.176781691476441,1
536,325,52,0.181096205314683,1
536,342,52,0.152287152220896,1
537,313,52,0.233435366532351,1
537,320,52,0.209542201175444,1
537,321,52,0.201015443805552,1
537,322,52,0.168802263965927,1
537,323,52,0.152908429023512,1
537,324,52,0.178905555091285,1
537,325,52,0.188936924894402,1
537,326,52,0.178109168064267,1
537,330,52,0.193065682221143,1
537,342,52,0.186190135715665,1
537,343,52,0.179030648964686,1
537,344,52,0.149018800966155,1
537,345,52,0.121167077553679,1
538,313,52,0.200184091262611,1
538,314,52,0.225391178034279,1
538,318,52,0.232367298977608,1
538,319,52,0.202801664664756,1
538,320,52,0.190280206036746,1
538,321,52,0.188448137837196,1
538,322,52,0.164197450374405,1
538,323,52,0.132801361292682,1
538,324,52,0.139668228247728,1
538,325,52,0.159947096903542,1
538,326,52,0.154319592022973,1
538,327,52,0.159351293462643,1
538,328,52,0.18234155003722,1
538,329,52,0.174419369873589,1
538,330,52,0.193983359193761,1
538,331,52,0.277695420843489,1
538,341,52,0.156900409825524,1
538,342,52,0.157737356379938,1
538,343,52,0.180610197597915,1
538,344,52,0.173245970027027,1
538,345,52,0.148964980687353,1
539,313,52,0.17020353439773,1
539,314,52,0.199611452917643,1
539,315,52,0.202884055621103,1
539,316,52,0.193376026200795,1
539,317,52,0.213510675352404,1
539,318,52,0.248499132610246,1
539,319,52,0.257404563337824,1
539,320,52,0.219911779023781,1
539,321,52,0.178433290977441,1
539,322,52,0.150957673565806,1
539,323,52,0.132533037171841,1
539,324,52,0.137886718135027,1
539,325,52,0.167512614672524,4
539,326,52,0.181091200146523,1
539,327,52,0.167619313080829,1
539,328,52,0.167744677822154,1
539,329,52,0.17914122196199,1
539,330,52,0.217199213418392,1
539,331,52,0.263192139384582,1
539,332,52,0.212074981140526,1
539,339,52,0.121987913355051,1
540,313,52,0.162840672943328,1
540,314,52,0.217600380590632,1
540,315,52,0.244758470134197,4
540,316,52,0.218263630144594,4
540,317,52,0.199413625118228,1
540,318,52,0.212724757959489,1
540,319,52,0.237165005861582,1
540,320,52,0.223813902336238,1
540,321,52,0.189686663754169,1
540,322,52,0.182637314256443,1
540,323,52,0.204749699666357,4
540,324,52,0.251029957615529,4
540,325,52,0.294980303897794,4
540,326,52,0.285882980911396,4
540,327,52,0.235526231367938,1
540,328,52,0.233720390249546,1
540,329,52,0.238179135368859,1
540,330,52,0.207731767079212,1
540,331,52,0.170577179033523,1
540,332,52,0.114185739458598,1
541,314,52,0.225763374115522,4
541,315,52,0.308489311645936,4
541,316,52,0.299533122624783,4
541,317,52,0.245486939973501,4
541,318,52,0.219522647808857,4
541,319,52,0.234898924809797,4
541,320,52,0.231836444954126,4
541,321,52,0.224078410752411,1
541,322,52,0.262173040039744,4
541,323,52,0.355488052651825,4
541,324,52,0.442707618379411,4
541,325,52,0.435370018303134,4
541,326,52,0.353641769774701,4
541,327,52,0.267850902800435,4
541,328,52,0.259988643332329,1
541,329,52,0.246440913247929,1
541,330,52,0.18049194608381,1
541,331,52,0.144465652486911,1
541,332,52,0.140521521092509,1
541,333,52,0.148424870046992,1
541,334,52,0.1657616184203,1
541,335,52,0.152941887100553,1
542,314,52,0.208166333444161,4
542,315,52,0.32349094297745,4
542,316,52,0.365812689978518,4
542,317,52,0.331161404401665,4
542,318,52,0.308338921063811,4
542,319,52,0.316089912699504,4
542,320,52,0.289545656979079,4
542,321,52,0.278977285628294,4
542,322,52,0.318837502705146,4
542,323,52,0.403061834483399,4
542,324,52,0.438673853255913,4
542,325,52,0.364056311698413,4
542,326,52,0.28537071078287,4
542,327,52,0.218234965252121,1
542,328,52,0.183381282451744,1
542,329,52,0.162882480818547,1
542,330,52,0.145959065120323,1
542,331,52,0.179890466193375,1
542,332,52,0.216757251181432,1
542,333,52,0.197918410624278,1
542,334,52,0.168289251894827,1
542,335,52,0.141013476126738,1
543,314,52,0.168703785810271,1
543,315,52,0.254245065657914,4
543,316,52,0.323114813422876,4
543,317,52,0.359433797476905,4
543,318,52,0.377668955869633,4
543,319,52,0.378826339178082,4
543,320,52,0.339453519488217,4
543,321,52,0.327865601271675,4
543,322,52,0.304157474037427,4
543,323,52,0.274264348627651,4
543,324,52,0.236314056613186,4
543,325,52,0.19198760433008,4
543,326,52,0.189380995190422,1
543,327,52,0.177152639209861,1
543,328,52,0.151048861841248,1
543,329,52,0.129177172023932,1
543,330,52,0.120495984606788,1
543,331,52,0.145318073843589,1
543,332,52,0.160876173882698,1
543,333,52,0.129129169517061,1
544,315,52,0.15596326569298,1
544,316,52,0.188672404701363,4
544,317,52,0.240003513274742,4
544,318,52,0.294885641446806,4
544,319,52,0.321429355431382,4
544,320,52,0.295425728533434,4
544,321,52,0.308558182759817,4
544,322,52,0.273284489801187,4
544,323,52,0.187957030737338,1
544,324,52,0.123400230487405,1
544,325,52,0.116835534366827,1
544,326,52,0.151728728553502,1
544,327,52,0.171667033790844,1
544,328,52,0.173037495940514,1
544,329,52,0.145865568579095,1
545,313,52,0.29091869826246,5
545,314,52,0.252843477250722,5
545,315,52,0.188529504206178,5
545,316,52,0.154685463927035,5
545,317,52,0.175417317966627,1
545,318,52,0.258455530882759,4
545,319,52,0.333956549393261,4
545,320,52,0.278606243679945,4
545,321,52,0.231883458204231,4
545,322,52,0.199824190229742,1
545,323,52,0.152690309683533,1
545,326,52,0.117465184521354,1
545,327,52,0.131398995612316,1
545,328,52,0.147099548625692,1
545,329,52,0.130704596247099,1
546,312,52,0.223249531351384,5
546,313,52,0.33892617497088,5
546,314,52,0.378687207280101,5
546,315,52,0.342645403550339,5
546,316,52,0.292468345432258,5
546,317,52,0.258438336658021,5
546,318,52,0.261351156097275,5
546,319,52,0.292991191186683,4
546,320,52,0.238405298308493,1
546,321,52,0.157742196671971,1
547,313,52,0.181797776791452,5
547,314,52,0.267221947481018,5
547,315,52,0.364118446444795,5
547,316,52,0.429607032353124,5
547,317,52,0.405597488003848,5
547,318,52,0.30371320353468,5
547,319,52,0.217447752403918,5
547,320,52,0.16845393959259,1
548,315,52,0.190443339188163,5
548,316,52,0.270534073347642,5
548,317,52,0.300369350790355,5
548,318,52,0.258006102112591,5
548,319,52,0.187646898741279,1
548,320,52,0.154023533382093,1
549,319,52,0.120158436066078,1
549,320,52,0.122113713840428,1
529,331,53,0.249570615456204,1
529,332,53,0.223799110592217,1
529,333,53,0.177095474301041,1
529,334,53,0.118154366734819,1
530,327,53,0.152435752719349,1
530,328,53,0.171558651290664,1
530,330,53,0.179171641607537,1
530,331,53,0.223861174677401,1
530,332,53,0.290590005925177,1
530,333,53,0.289755096768626,1
530,334,53,0.204018073626895,1
530,335,53,0.131050082395667,1
530,339,53,0.121074287624426,1
531,331,53,0.154674193466025,1
531,332,53,0.222930543151898,1
531,333,53,0.249670436174614,1
531,334,53,0.20865271802065,1
531,335,53,0.155649247331056,1
531,336,53,0.119665268014625,1
531,337,53,0.131468420238912,1
531,338,53,0.174952543939724,1
531,339,53,0.205867489150444,1
531,340,53,0.194331907327557,1
531,341,53,0.161694442327226,1
531,342,53,0.130236501143911,1
532,319,53,0.185803677849382,1
532,320,53,0.131974872595505,1
532,325,53,0.120063950268084,1
532,332,53,0.124005431867578,1
532,333,53,0.134307787363309,1
532,334,53,0.131223885387914,1
532,335,53,0.12161952120161,1
532,338,53,0.146412262487694,1
532,339,53,0.191290720046082,1
532,340,53,0.213360002125489,1
532,341,53,0.211888294256592,1
532,342,53,0.185089717109309,1
532,343,53,0.140051577021318,1
533,320,53,0.217669157489583,1
533,321,53,0.169861416432912,1
533,322,53,0.164486749094053,1
533,323,53,0.185694470968564,1
533,324,53,0.224596286669275,1
533,327,53,0.150727530045377,1
533,328,53,0.126897936212535,1
533,329,53,0.118054616677607,1
533,340,53,0.129284518159881,1
533,341,53,0.140978381065286,1
533,342,53,0.131675516432073,1
534,321,53,0.233294562319361,1
534,322,53,0.22906702063844,1
534,323,53,0.260520675042437,1
534,329,53,0.166715839008919,1
534,330,53,0.144895696535218,1
534,331,53,0.127933652715665,1
534,332,53,0.122447752874992,1
534,333,53,0.121115518433198,1
534,334,53,0.119001123418826,1
535,330,53,0.192566696397758,1
535,331,53,0.183356857231123,1
535,332,53,0.190541487591564,1
535,339,53,0.157338674126479,1
535,340,53,0.130027285114823,1
536,321,53,0.237817067392599,1
536,322,53,0.196151527379471,1
536,323,53,0.205159935025616,1
536,330,53,0.204314096937176,1
536,331,53,0.212626750878484,1
536,341,53,0.136232586607781,1
537,320,53,0.236669623759272,1
537,321,53,0.222143542287288,1
537,322,53,0.194660128590189,1
537,323,53,0.178125585015831,1
537,324,53,0.189576891583771,1
537,325,53,0.205397733509113,1
537,329,53,0.213602393586827,1
537,330,53,0.198147188028222,1
537,341,53,0.158370904677197,1
537,342,53,0.124848431731249,1
537,343,53,0.117920831476907,1
538,318,53,0.238949059777395,1
538,320,53,0.222690271526486,1
538,321,53,0.216108275189374,1
538,322,53,0.185244712446141,1
538,323,53,0.143165192030284,1
538,324,53,0.132361813313304,1
538,325,53,0.146228696473318,1
538,326,53,0.153119340921341,1
538,327,53,0.155323499210338,1
538,328,53,0.176628933744198,1
538,329,53,0.176412910686413,1
538,330,53,0.210602142692469,1
538,340,53,0.175074128306979,1
538,341,53,0.137367358333014,1
538,342,53,0.123096552214056,1
538,343,53,0.129954468750745,1
538,344,53,0.122315793088562,1
539,314,53,0.255853597159005,1
539,317,53,0.230913963020075,1
539,318,53,0.266458288365332,1
539,319,53,0.255336969589964,1
539,320,53,0.232804762451657,1
539,321,53,0.18872060741496,1
539,322,53,0.153731584867537,1
539,323,53,0.129171648673656,1
539,324,53,0.127090723513192,1
539,325,53,0.138808575895167,1
539,326,53,0.137799392671718,1
539,327,53,0.134437309338424,1
539,328,53,0.154261096328265,1
539,329,53,0.170429497130637,1
539,330,53,0.19822510377539,1
539,331,53,0.239802199522914,1
539,335,53,0.11534871677852,1
539,337,53,0.12304349743156,1
539,338,53,0.126214948630723,1
539,339,53,0.117176439314421,1
540,314,53,0.309868500453504,4
540,315,53,0.313737577879239,4
540,316,53,0.237624515629268,4
540,317,53,0.217073813346468,1
540,318,53,0.237392252272912,1
540,319,53,0.249501838557253,1
540,320,53,0.246549048433917,1
540,321,53,0.198436710508328,1
540,322,53,0.183971221013246,4
540,323,53,0.209514337109876,4
540,324,53,0.238948706471407,4
540,325,53,0.234685763530512,4
540,326,53,0.203008819742249,1
540,327,53,0.17956222137701,1
540,328,53,0.187616844178587,1
540,329,53,0.181379862915392,1
540,330,53,0.151557646017361,1
540,331,53,0.129014757261357,1
541,313,53,0.18290565015415,4
541,314,53,0.315147009679359,4
541,315,53,0.431335829212451,4
541,316,53,0.371555042858843,4
541,317,53,0.258169329478938,4
541,318,53,0.219065069447238,4
541,319,53,0.253062126549683,4
541,320,53,0.276867554252961,4
541,321,53,0.255170656684658,4
541,322,53,0.292504995040055,4
541,323,53,0.391592862616072,4
541,324,53,0.43621460804375,4
541,325,53,0.372338840415831,4
541,326,53,0.285559753040057,4
541,327,53,0.227415315145644,1
541,328,53,0.204745742639294,1
541,329,53,0.172900648754587,1
541,330,53,0.125296070417746,1
542,314,53,0.240785073227141,4
542,315,53,0.409598089471962,4
542,316,53,0.472021651721509,4
542,317,53,0.39046324915826,4
542,318,53,0.317759212830491,4
542,319,53,0.328734215819459,4
542,320,53,0.327546872163247,4
542,321,53,0.309373730748239,4
542,322,53,0.347886721432549,4
542,323,53,0.425695040026742,4
542,324,53,0.428966841903296,4
542,325,53,0.341209803553391,4
542,326,53,0.270818037146874,4
542,327,53,0.210916443699183,1
542,328,53,0.158484304122403,1
542,329,53,0.124899013371831,1
542,331,53,0.123382682956679,1
542,332,53,0.136773509851914,1
542,333,53,0.118864217348568,1
543,315,53,0.261109895215097,4
543,316,53,0.379353259728233,4
543,317,53,0.42998897967963,4
543,318,53,0.411844597372025,4
543,319,53,0.398936586662803,4
543,320,53,0.373541093584726,4
543,321,53,0.346499406587263,4
543,322,53,0.298029004819942,4
543,323,53,0.253629677288427,4
543,324,53,0.215660989808865,4
543,325,53,0.18131238147173,4
543,326,53,0.176577421731182,1
543,327,53,0.158457346875536,1
543,328,53,0.123531789860382,1
544,316,53,0.197069416335682,4
544,317,53,0.263769064508868,4
544,318,53,0.304658862341529,4
544,319,53,0.31688753629748,4
544,320,53,0.294724439701456,4
544,321,53,0.298745203164604,4
544,322,53,0.250884795962023,4
544,323,53,0.163722630680583,1
544,326,53,0.132424077605215,1
544,327,53,0.14147211440632,1
544,328,53,0.125344461561204,1
545,314,53,0.262484703028416,5
545,317,53,0.17318139746933,1
545,318,53,0.251254660223747,4
545,319,53,0.301860631810974,4
545,320,53,0.231939586748821,4
545,321,53,0.192823196544875,1
545,322,53,0.177017499669541,1
545,323,53,0.136149182840936,1
546,313,53,0.301290254624328,5
546,314,53,0.356391738707328,5
546,315,53,0.306315796762945,5
546,316,53,0.238533736811912,5
546,317,53,0.212164532431558,1
546,318,53,0.231805000721215,1
546,319,53,0.251530969059911,1
546,320,53,0.176420283004691,1
547,314,53,0.233068140288669,5
547,315,53,0.309375662154305,5
547,316,53,0.347665787421534,5
547,317,53,0.305039773303804,5
547,318,53,0.225073438182617,5
547,319,53,0.16739581171297,1
547,320,53,0.118961564925063,1
548,316,53,0.236754252320208,5
548,319,53,0.137850516048147,1
530,331,54,0.258291691119367,1
530,332,54,0.278245683142565,1
530,333,54,0.227027455832276,1
530,334,54,0.149630668052631,1
531,332,54,0.250307093564564,1
531,333,54,0.228780607251026,1
531,334,54,0.177046859397124,1
531,335,54,0.13954812776562,1
531,339,54,0.1686230436152,1
531,340,54,0.158066873097859,1
532,339,54,0.176775520398522,1
532,340,54,0.197767902273491,1
532,341,54,0.194177854140025,1
532,342,54,0.159362799460978,1
533,321,54,0.169040462862877,1
533,322,54,0.148554321360908,1
533,323,54,0.161555604850901,1
533,326,54,0.157105562835753,1
533,327,54,0.11499174818535,1
534,328,54,0.150417009412731,1
534,329,54,0.130566689143208,1
535,329,54,0.176693188326506,1
535,330,54,0.16279363613949,1
535,331,54,0.153653680897235,1
535,332,54,0.14374712232273,1
535,335,54,0.163134046458701,1
535,336,54,0.130452806846486,1
535,337,54,0.12014470424002,1
535,338,54,0.118335353615484,1
536,329,54,0.196074977748789,1
536,330,54,0.186004226104903,1
536,331,54,0.199382180885317,1
536,339,54,0.172999491993097,1
536,340,54,0.123326966602409,1
537,321,54,0.231939468980158,1
537,322,54,0.209282921687891,1
537,323,54,0.189135671289385,1
537,328,54,0.215877637040562,1
537,329,54,0.185367604045551,1
537,330,54,0.205371188452566,1
537,340,54,0.158172758902392,1
538,321,54,0.22564996289345,1
538,322,54,0.18429276479271,1
538,323,54,0.140121696483023,1
538,325,54,0.134844930233373,1
538,326,54,0.161617963357741,1
538,327,54,0.158940610582466,1
538,328,54,0.161892270126641,1
538,329,54,0.17006993762689,1
538,330,54,0.215209511863968,1
538,336,54,0.17757971548787,1
538,337,54,0.200568935698216,1
538,338,54,0.214463376725276,1
538,339,54,0.193050843369657,1
538,340,54,0.145595548589513,1
539,314,54,0.283985068252593,4
539,317,54,0.226379633973112,1
539,318,54,0.253178010913669,1
539,320,54,0.23330662183041,1
539,321,54,0.185516239874604,1
539,322,54,0.14338974153924,1
539,323,54,0.117066502267895,1
539,325,54,0.114936620674392,1
539,327,54,0.114065921621281,1
539,328,54,0.134563934204438,1
539,329,54,0.150883208440452,1
539,330,54,0.16849996358593,1
539,331,54,0.191106364981667,1
540,313,54,0.286033442154718,4
540,314,54,0.353698487162603,4
540,315,54,0.334008249836137,4
540,316,54,0.232698723547863,4
540,317,54,0.215553325697527,1
540,318,54,0.239588614276445,1
540,319,54,0.239171242136233,1
540,320,54,0.250361384918017,1
540,321,54,0.20138019690732,1
540,322,54,0.176867026649352,4
540,323,54,0.193989306511222,4
540,324,54,0.205309618995765,4
540,325,54,0.174494730040779,1
540,326,54,0.138342541743574,1
540,327,54,0.125363551861409,1
540,328,54,0.13066058609789,1
540,329,54,0.125851867843964,1
541,313,54,0.197802549814024,4
541,314,54,0.353364000607121,4
541,315,54,0.470619074057552,4
541,316,54,0.374464070147161,4
541,317,54,0.243685362080695,4
541,318,54,0.209839331511154,4
541,319,54,0.245931728658363,4
541,320,54,0.303485839354688,4
541,321,54,0.282248851967523,4
541,322,54,0.297051736904054,4
541,323,54,0.366788120703269,4
541,324,54,0.367594600504672,4
541,325,54,0.277053063450269,4
541,326,54,0.202407139645087,1
541,327,54,0.163639309351802,1
541,328,54,0.135600192443416,1
542,314,54,0.243388231744986,4
542,315,54,0.415875724477482,4
542,316,54,0.46978630829066,4
542,317,54,0.372380577629852,4
542,318,54,0.283799771038877,4
542,319,54,0.293633878332158,4
542,320,54,0.32802571954533,4
542,321,54,0.315379249481983,4
542,322,54,0.326989473083218,4
542,323,54,0.363997168276062,4
542,324,54,0.338992290298057,4
542,325,54,0.263936743530661,4
542,326,54,0.215811875019373,1
542,327,54,0.173508735466994,1
542,328,54,0.122437330348353,1
543,315,54,0.229091987594909,4
543,316,54,0.349705964624743,4
543,317,54,0.39944242662235,4
543,318,54,0.36564748409864,4
543,319,54,0.349269914374645,4
543,320,54,0.343123591427911,4
543,321,54,0.311964523556512,4
543,322,54,0.256839415079797,4
543,323,54,0.208273974001767,4
543,324,54,0.171516454778859,4
543,325,54,0.147570964805165,1
543,326,54,0.140066875170588,1
543,327,54,0.123362085217593,1
544,316,54,0.177127943121316,4
544,317,54,0.240062821573222,4
544,318,54,0.263310473336751,4
544,319,54,0.267024520095055,4
544,320,54,0.252832430550171,4
544,321,54,0.24208540413824,4
544,322,54,0.197268351160525,1
544,323,54,0.130147409150663,1
545,318,54,0.204967453923482,1
545,319,54,0.225476395438528,1
545,320,54,0.171355865430554,1
545,321,54,0.140919673386986,1
545,322,54,0.13044807254625,1
546,314,54,0.27388112939959,5
546,318,54,0.179366525190387,1
546,319,54,0.182375078775458,1
546,320,54,0.118258132703425,1
547,316,54,0.238057786538929,5
547,319,54,0.119194381794133,1
539,314,55,0.275051396599727,4
539,315,55,0.24215884467623,4
540,313,55,0.292289949462169,4
540,314,55,0.337544984096049,4
540,315,55,0.326455415752115,4
540,316,55,0.237391427892274,4
541,313,55,0.190729999889769,4
541,314,55,0.330966685694942,4
541,315,55,0.428206857169883,4
541,316,55,0.330326165492859,4
541,317,55,0.219078235983716,4
541,322,55,0.266383128404869,4
541,323,55,0.29341544101679,4
541,324,55,0.27577583875077,4
542,314,55,0.220213808535854,4
542,315,55,0.354958352761237,4
542,316,55,0.381390681144738,4
542,317,55,0.303169512726977,4
542,318,55,0.228644702214399,4
542,319,55,0.233087454349333,4
542,320,55,0.286741914875115,4
542,321,55,0.293254097949045,4
542,322,55,0.270292694696802,4
542,323,55,0.260880599629038,4
542,324,55,0.230165684491723,4
543,315,55,0.183587778024726,4
543,316,55,0.269292791643965,4
543,317,55,0.308099638695165,4
543,318,55,0.275587361783165,4
543,319,55,0.258026711628544,4
543,320,55,0.260970810424581,4
543,321,55,0.241214128018682,4
540,314,56,0.273645686289344,4
540,315,56,0.276348783294261,4
541,314,56,0.264921642855884,4
541,315,56,0.324773844126486,4
541,316,56,0.251071624168353,4
542,315,56,0.258153995999069,4
542,316,56,0.254578233204375,4
542,317,56,0.203708365598021,4
541,315,57,0.207432964428494,4
