x,y,z,signal,mito.p
167,204,1,0.114529235316768,1
167,204,2,0.132445829477195,1
168,204,2,0.125007195665284,1
195,169,2,0.132291776289663,1
195,170,2,0.114129681575206,1
166,204,3,0.144878160781358,1
167,204,3,0.148014269604879,1
168,204,3,0.131220211005642,1
195,168,3,0.119674630623301,1
195,169,3,0.146035343883082,1
195,170,3,0.118093680542987,1
165,204,4,0.137885587555866,1
166,204,4,0.139205809594076,1
167,204,4,0.125355425823691,1
195,169,4,0.129830564340836,1
156,194,5,0.116121255651365,1
162,203,5,0.136925360765455,1
163,203,5,0.114100639823012,1
165,204,5,0.148266965824194,1
166,204,5,0.13094317200377,1
186,188,5,0.114075260676224,1
155,196,6,0.153071267753273,1
156,194,6,0.135658546815729,1
156,195,6,0.155535058835811,1
156,196,6,0.158069393347239,1
156,197,6,0.127508884703443,1
157,194,6,0.115370362658704,1
157,195,6,0.125373326660404,1
157,196,6,0.118576131646145,1
160,202,6,0.141283166364064,1
161,202,6,0.14683443958934,1
161,203,6,0.181044787516597,1
162,203,6,0.169738536610367,1
163,203,6,0.1280337089714,1
163,204,6,0.18016903618786,1
164,204,6,0.144755410504343,1
165,204,6,0.124504935873079,1
182,162,6,0.154915477901935,1
182,163,6,0.14160032914928,1
183,161,6,0.139373041094951,1
183,162,6,0.159843166058808,1
183,163,6,0.132272603551394,1
184,160,6,0.11567864568676,1
186,188,6,0.121532761027881,1
155,194,7,0.113854880177923,1
155,195,7,0.200134604870592,1
155,196,7,0.27185666253597,2
155,197,7,0.243775478661308,2
156,194,7,0.153707018324521,1
156,195,7,0.242046281388528,1
156,196,7,0.287478298768545,2
156,197,7,0.219564903204994,2
156,198,7,0.132112944575524,1
157,194,7,0.150888072286217,1
157,195,7,0.20216766884658,1
157,196,7,0.197178646770232,1
157,197,7,0.135077699994978,1
158,195,7,0.126408065683634,1
159,202,7,0.1492128837221,1
160,202,7,0.191637831402194,1
160,203,7,0.201110247578935,1
161,202,7,0.172828750986077,1
161,203,7,0.221756036279908,1
162,203,7,0.180123188847515,1
162,204,7,0.208280498385674,1
163,203,7,0.123891196264868,1
163,204,7,0.182061025082935,1
164,204,7,0.130850558727511,1
181,163,7,0.114912360329899,1
182,162,7,0.194404170178921,1
182,163,7,0.213764254836688,1
182,164,7,0.134301368971198,1
183,161,7,0.154407105916142,1
183,162,7,0.217423704043017,1
183,163,7,0.212107414630203,1
183,164,7,0.120825642647104,1
184,160,7,0.149128090285037,1
184,161,7,0.147672728706507,1
184,162,7,0.132134013389261,1
186,188,7,0.121094661603054,1
187,188,7,0.124600634688298,1
153,200,8,0.310618309974469,2
154,195,8,0.138695741739541,1
154,196,8,0.233868472565884,2
154,197,8,0.28440950651256,2
154,198,8,0.284377897403521,2
154,199,8,0.254161497014941,2
154,200,8,0.256363135054558,2
155,195,8,0.248184219206486,2
155,196,8,0.407710257810677,2
155,197,8,0.391666986212305,2
155,198,8,0.284923236972501,2
156,194,8,0.154743900737411,1
156,195,8,0.303864489158641,2
156,196,8,0.418364317640361,2
156,197,8,0.326952281739573,2
156,198,8,0.192790056443222,2
157,194,8,0.171828164874997,1
157,195,8,0.253331298604894,1
157,196,8,0.257121918547613,2
157,197,8,0.170099002932817,2
158,194,8,0.120514898254,1
158,195,8,0.146578080764618,1
158,196,8,0.119725318255678,1
158,201,8,0.141588823150945,1
159,201,8,0.127533027279273,1
159,202,8,0.188314800157414,1
160,202,8,0.21637000426511,1
160,203,8,0.240358939098433,1
161,202,8,0.168085771199608,1
161,203,8,0.238109958056455,1
161,204,8,0.207406749124202,1
162,203,8,0.1649262028585,1
162,204,8,0.201819591787435,1
163,204,8,0.158714848056285,1
181,163,8,0.12039449157337,1
182,162,8,0.190076548688533,1
183,161,8,0.140607362670669,1
184,160,8,0.159060675733974,1
184,161,8,0.168294857683166,1
185,160,8,0.139443973160428,1
185,161,8,0.134527473026501,1
187,188,8,0.128859243742409,1
187,189,8,0.135179628772448,1
152,200,9,0.182313379773129,2
153,197,9,0.178345117579762,2
153,198,9,0.23323346393721,2
153,199,9,0.268176179846503,2
153,200,9,0.347243139245239,2
153,201,9,0.276229648515187,2
154,195,9,0.139404815080117,1
154,196,9,0.262223068167611,2
154,197,9,0.357631795616914,2
154,198,9,0.383140911900655,2
154,199,9,0.34000656112773,2
154,200,9,0.348484562271311,2
154,201,9,0.256348107773212,2
155,195,9,0.250669255755755,2
155,196,9,0.466295126949436,2
155,197,9,0.493004023260159,2
155,198,9,0.382072655916052,2
155,199,9,0.260259558363747,2
155,200,9,0.229996191832527,2
156,194,9,0.147424272159045,2
156,195,9,0.30802951923346,2
156,196,9,0.465593885224923,2
156,197,9,0.383201656976818,2
156,198,9,0.236782022170846,2
156,199,9,0.178489207538438,1
157,194,9,0.178132498036325,1
157,195,9,0.262467202605156,2
157,196,9,0.269043546046464,2
157,197,9,0.177089468099249,2
157,198,9,0.116657562363924,1
157,199,9,0.139481623801857,1
157,200,9,0.202034119183206,1
157,201,9,0.228277711508043,1
158,194,9,0.124775191399986,1
158,195,9,0.147599276391651,1
158,196,9,0.116912295981102,1
158,200,9,0.136342347001313,1
158,201,9,0.183528717040438,1
158,202,9,0.200415930651782,1
159,201,9,0.140177495275357,1
159,202,9,0.218525712526318,1
159,203,9,0.181618426895197,1
160,202,9,0.212276436214749,1
160,203,9,0.245367287012312,1
161,202,9,0.145537347316462,1
161,203,9,0.227699326052341,1
161,204,9,0.216119439658588,1
162,203,9,0.143666356573927,1
162,204,9,0.185116332827054,1
162,205,9,0.13357514851335,1
163,204,9,0.129084594078271,1
187,188,9,0.115846583799611,1
187,189,9,0.143913435228036,1
152,200,10,0.153802870239002,2
153,197,10,0.190252118210719,2
153,198,10,0.239722140386087,2
153,199,10,0.268700391717415,2
153,200,10,0.3420209234401,2
153,201,10,0.271044176532776,2
154,195,10,0.136572973373259,1
154,196,10,0.273744517750988,2
154,197,10,0.405114071197657,2
154,198,10,0.430254100492848,2
154,199,10,0.371969447228757,2
154,200,10,0.403275608159729,2
154,201,10,0.306154924769849,2
155,195,10,0.230803213369777,2
155,196,10,0.455754266358232,2
155,197,10,0.543582601856468,2
155,198,10,0.439297932952699,2
155,199,10,0.294585496233334,2
155,200,10,0.281716349182766,2
155,201,10,0.237281926589799,2
156,194,10,0.144226358341399,1
156,195,10,0.282663845180751,2
156,196,10,0.43799413964292,2
156,197,10,0.390989510203901,2
156,198,10,0.255844269880928,2
156,199,10,0.204495955305945,2
156,200,10,0.251903377124747,2
157,194,10,0.17198139368189,1
157,195,10,0.244082666440802,1
157,196,10,0.250008550004904,2
157,197,10,0.167826656588182,2
157,198,10,0.115231760719704,1
157,199,10,0.160708341761644,1
157,200,10,0.258482287922899,1
157,201,10,0.277684845217589,1
158,194,10,0.115523815226056,1
158,195,10,0.131555627933558,1
158,200,10,0.153984928814496,1
158,201,10,0.200348590530514,1
158,202,10,0.219750647939628,1
159,201,10,0.133835582133797,1
159,202,10,0.219036475215962,1
159,203,10,0.181359983565148,1
160,202,10,0.177175109470683,1
160,203,10,0.20990123072021,1
160,204,10,0.146447251557349,1
161,203,10,0.183735989886593,1
161,204,10,0.189750364823763,1
162,204,10,0.145389300330723,1
187,189,10,0.126227773638078,1
153,196,11,0.147186991857663,2
153,197,11,0.204448965609572,2
153,198,11,0.230891704742846,2
153,199,11,0.247857976457385,2
153,200,11,0.295782732457204,2
153,201,11,0.24559592309386,2
154,195,11,0.143134572178011,2
154,196,11,0.29359216467187,2
154,197,11,0.437694677487691,2
154,198,11,0.425333254695272,2
154,199,11,0.361752026492485,2
154,200,11,0.411753161782392,2
154,201,11,0.339607278254092,2
154,202,11,0.171203649434159,2
155,195,11,0.213587177875621,2
155,196,11,0.41654295461224,2
155,197,11,0.551368900537204,2
155,198,11,0.448609288706485,2
155,199,11,0.312906931948273,2
155,200,11,0.323812898947233,2
155,201,11,0.27485804400949,2
156,194,11,0.145584702095689,1
156,195,11,0.250918100939803,2
156,196,11,0.364958089901582,2
156,197,11,0.362114070915013,2
156,198,11,0.256242751927661,2
156,199,11,0.216411835694061,2
156,200,11,0.273904588917177,2
157,194,11,0.159898705760084,1
157,195,11,0.217578593388053,1
157,196,11,0.214794495097008,2
157,197,11,0.153197786627491,2
157,199,11,0.155153617914554,1
157,200,11,0.262178480951955,1
157,201,11,0.283373212942983,1
158,200,11,0.150123306145103,1
158,201,11,0.199258877095587,1
158,202,11,0.224613763538803,1
159,201,11,0.122601688293861,1
159,202,11,0.199139860085176,1
159,203,11,0.174037940729199,1
160,202,11,0.136024359835459,1
160,203,11,0.162336540629388,1
161,203,11,0.135411303285491,1
161,204,11,0.148172338703804,1
153,196,12,0.173421610210411,2
153,197,12,0.211571826306485,2
153,198,12,0.20530582684483,2
153,199,12,0.205939799109273,2
153,200,12,0.222279117571659,2
153,201,12,0.199079185670211,2
154,195,12,0.166399276843883,2
154,196,12,0.339160958576616,2
154,197,12,0.44596542933885,2
154,198,12,0.376067137182308,2
154,199,12,0.320090137307897,2
154,200,12,0.369891277854997,2
154,201,12,0.337712003613331,2
154,202,12,0.17549943805505,2
155,194,12,0.118258945307197,1
155,195,12,0.219603578433788,2
155,196,12,0.406508687700024,2
155,197,12,0.520572630807773,2
155,198,12,0.404156376433492,2
155,199,12,0.311763586664404,2
155,200,12,0.341236843238322,2
155,201,12,0.296064647081707,2
156,194,12,0.151516391654856,1
156,195,12,0.22987347688611,2
156,196,12,0.30117959918896,2
156,197,12,0.311552286129989,2
156,198,12,0.233784550616924,2
156,199,12,0.213767740789101,2
156,200,12,0.2650530491296,2
157,194,12,0.146689360373898,1
157,195,12,0.187584045606056,1
157,196,12,0.173792016207983,2
157,197,12,0.130870473408354,2
157,199,12,0.134027333070222,1
157,200,12,0.221380542676113,1
157,201,12,0.251330361920059,1
158,200,12,0.128044367035364,1
158,201,12,0.17662137299606,1
158,202,12,0.203392086077775,1
159,202,12,0.151919973084679,1
159,203,12,0.143055148991961,1
153,196,13,0.203673765164953,2
153,197,13,0.223312160726148,2
153,198,13,0.183139998015834,2
154,195,13,0.199205339461575,2
154,196,13,0.402521747396771,2
154,197,13,0.447546968262476,2
154,198,13,0.326462552533067,2
154,199,13,0.267805020129491,2
154,200,13,0.287375722263431,2
154,201,13,0.284215894831265,2
155,194,13,0.124316564897269,1
155,195,13,0.244019236239132,2
155,196,13,0.43729106072727,2
155,197,13,0.481512110057359,2
155,198,13,0.349006230339111,2
155,199,13,0.297995794057092,2
155,200,13,0.321094068048994,2
155,201,13,0.281512892041279,2
156,194,13,0.153007543129946,1
156,195,13,0.216912493832455,1
156,196,13,0.270216851678095,2
156,197,13,0.266605546301032,2
156,198,13,0.208121958212098,2
156,199,13,0.206804998365842,2
156,200,13,0.243472695429794,2
157,194,13,0.13352921873494,1
157,195,13,0.158828989444065,1
157,196,13,0.140171418412367,1
157,199,13,0.117885135795276,1
157,200,13,0.174782521321545,1
157,201,13,0.207297883772505,1
158,201,13,0.147841102563409,1
158,202,13,0.168700476510852,1
153,196,14,0.198687228007385,2
153,197,14,0.207083073731945,2
154,195,14,0.200409312052944,2
154,196,14,0.40816917873505,2
154,197,14,0.404654113909054,2
154,198,14,0.270453660904827,2
155,194,14,0.116582107981804,1
155,195,14,0.244014808137419,2
155,196,14,0.432761206889486,2
155,197,14,0.410982342332021,2
155,198,14,0.281850346367058,2
155,199,14,0.247958527341502,2
155,200,14,0.251553439320733,2
156,194,14,0.141244750226328,1
156,195,14,0.19398600898867,1
156,196,14,0.239127973929598,2
156,197,14,0.214491806080424,2
156,198,14,0.168137989824599,1
156,199,14,0.172270892608264,1
156,200,14,0.196081513909563,1
157,194,14,0.114089204485874,1
157,195,14,0.126313497447576,1
157,200,14,0.127712212299401,1
157,201,14,0.159097513771632,1
153,196,15,0.173738078160518,2
153,197,15,0.176377780294363,2
154,195,15,0.181191315286589,2
154,196,15,0.359269415977665,2
154,197,15,0.334342759945352,2
154,198,15,0.209923041476521,2
155,187,15,0.218587800165234,1
155,195,15,0.22209921416269,2
155,196,15,0.379335759304973,2
155,197,15,0.326862965985866,2
155,198,15,0.216068116075432,2
156,186,15,0.153768893979845,1
156,187,15,0.116650708227762,1
156,194,15,0.125776083709589,1
156,195,15,0.166400289654381,1
156,196,15,0.199282336613175,2
156,197,15,0.165148055465083,2
156,198,15,0.130225913741144,1
156,199,15,0.132581086786177,1
153,196,16,0.141868900584312,1
154,195,16,0.156604292300313,1
154,196,16,0.289506133815915,2
154,197,16,0.259943420165896,2
154,198,16,0.154161664246442,1
155,187,16,0.219271777003813,1
155,195,16,0.189012108408598,1
155,196,16,0.300095044021455,2
155,197,16,0.24782405908256,2
155,198,16,0.15882393716844,1
155,199,16,0.12609096178275,1
156,186,16,0.160494615192779,1
156,187,16,0.126148008922908,1
156,194,16,0.113823954127127,1
156,195,16,0.13808873849883,1
156,196,16,0.155353188690176,1
156,197,16,0.124572546862271,1
153,196,17,0.116121597180486,1
154,187,17,0.220396043764342,1
154,195,17,0.138490777159173,1
154,196,17,0.222756386853663,1
154,197,17,0.204023467431642,1
155,186,17,0.259425850447554,1
155,187,17,0.198268371982025,1
155,195,17,0.161403377077639,1
155,196,17,0.221222167378665,1
155,197,17,0.188305790854726,1
155,198,17,0.120005807879364,1
156,186,17,0.156728973983395,1
156,187,17,0.127390350544548,1
156,195,17,0.116162651336264,1
156,196,17,0.118044559233822,1
154,195,18,0.140690048048672,1
154,196,18,0.181682387055848,1
154,197,18,0.178954935491508,1
155,186,18,0.212325192441061,1
155,187,18,0.1598231689399,1
155,194,18,0.133641746692043,1
155,195,18,0.156788600257263,1
155,196,18,0.176775826597044,1
155,197,18,0.166258990813008,1
156,186,18,0.136595620287075,1
154,194,19,0.168144208009984,1
154,195,19,0.176030162533002,1
154,196,19,0.169654178917356,1
154,197,19,0.177537083232013,1
155,194,19,0.181418597028518,1
155,195,19,0.186838169558421,1
155,196,19,0.17740289761786,1
155,197,19,0.191958574354753,1
155,198,19,0.133917360693098,1
156,186,19,0.116722806202998,1
156,194,19,0.115282130376693,1
156,195,19,0.114507424560457,1
156,197,19,0.119600035952417,1
154,194,20,0.227652242141038,1
154,195,20,0.213453180691328,1
154,196,20,0.160431444082167,1
154,197,20,0.166922228590105,1
155,193,20,0.126410656594211,1
155,194,20,0.22887625895878,1
155,195,20,0.226712589535981,1
155,196,20,0.189401757805636,1
155,197,20,0.23173749572382,1
155,198,20,0.189469286356764,1
156,194,20,0.123412478428314,1
156,195,20,0.128165621650365,1
156,196,20,0.125423625656195,1
156,197,20,0.171063846254801,1
156,198,20,0.157716158020672,1
192,157,20,0.14612981790421,1
192,158,20,0.148698917724834,1
193,156,20,0.119043696790352,1
193,157,20,0.1676769490643,1
193,158,20,0.173216492530782,1
193,159,20,0.12209063118256,1
194,157,20,0.130014153908944,1
194,158,20,0.12882659826914,1
196,156,20,0.117806807857789,1
196,157,20,0.129482133975703,1
197,156,20,0.158187527092681,1
197,157,20,0.211474926250908,1
197,158,20,0.163885351641681,1
198,159,20,0.134798870909435,1
198,160,20,0.122100017344969,1
198,161,20,0.124981180567718,1
199,160,20,0.191429369092547,1
199,161,20,0.245714728120679,1
153,194,21,0.125870934590437,1
154,193,21,0.156740350436201,1
154,194,21,0.266793505086523,1
154,195,21,0.236385165331657,1
154,196,21,0.144526597769801,1
154,197,21,0.139244885236323,1
154,198,21,0.129363811800401,1
155,193,21,0.1459664727692,1
155,194,21,0.27489257378136,1
155,195,21,0.264692936113139,1
155,196,21,0.182922856155754,1
155,197,21,0.231260085119421,1
155,198,21,0.236261555343404,1
155,199,21,0.139745107630665,1
156,194,21,0.139384429324623,1
156,195,21,0.145239604583707,1
156,196,21,0.13047693764545,1
156,197,21,0.200484966641791,1
156,198,21,0.219333181584486,1
156,199,21,0.132854616281904,1
192,157,21,0.150045107753144,1
192,158,21,0.16385507331853,1
192,159,21,0.138660717339287,1
193,156,21,0.152735179543979,1
193,157,21,0.215338138797247,1
193,158,21,0.228506653788114,1
193,159,21,0.169259995426807,1
194,155,21,0.120572298700145,1
194,156,21,0.147232262131562,1
194,157,21,0.178213970397104,1
194,158,21,0.176840140063684,1
194,159,21,0.125949356742854,1
195,155,21,0.124159379063313,1
195,156,21,0.130427886997482,1
195,157,21,0.131448022706552,1
196,155,21,0.115580815258749,1
196,156,21,0.148652717078501,1
196,157,21,0.171929398817358,1
196,158,21,0.126864890325813,1
197,155,21,0.114445018946151,1
197,156,21,0.188099083298152,1
197,157,21,0.255503188280341,1
197,158,21,0.188952541019061,1
198,156,21,0.164136469760917,1
198,157,21,0.228336619393069,1
198,158,21,0.186910408856053,1
198,159,21,0.134729929134356,1
198,160,21,0.12799628209043,1
198,161,21,0.128103557565181,1
199,157,21,0.120053916378031,1
199,158,21,0.115680753745821,1
199,159,21,0.119926066717926,1
199,160,21,0.158562102100908,1
199,161,21,0.20432872380507,1
199,162,21,0.20474355214217,1
199,163,21,0.146996972120577,1
200,160,21,0.127493786760899,1
200,161,21,0.174853029419837,1
200,162,21,0.189202340129276,1
153,194,22,0.117927285199616,1
154,193,22,0.168515933016576,1
154,194,22,0.273696962765035,1
154,195,22,0.229369756762489,1
154,196,22,0.125676769396428,1
154,198,22,0.123934617570764,1
155,193,22,0.180045155331684,1
155,194,22,0.320117271207757,1
155,195,22,0.283085668976408,1
155,196,22,0.16391771447016,1
155,197,22,0.195689697569132,1
155,198,22,0.251661032770873,1
155,199,22,0.164303713038659,1
156,194,22,0.167480817133626,1
156,195,22,0.157237769936374,1
156,196,22,0.124531834235614,1
156,197,22,0.195299765527304,1
156,198,22,0.256501772324157,1
156,199,22,0.168892674968195,1
157,198,22,0.123040824082919,1
192,156,22,0.127621447991145,1
192,157,22,0.160312933477005,1
192,158,22,0.180230381884203,1
192,159,22,0.180664665604362,1
192,160,22,0.136000075937234,1
193,155,22,0.139216691418499,1
193,156,22,0.220892909751801,1
193,157,22,0.281958717090372,1
193,158,22,0.292140100615892,1
193,159,22,0.229490422534176,1
193,160,22,0.127947702517112,1
194,154,22,0.127558465310392,1
194,155,22,0.166767763212254,1
194,156,22,0.212807031147173,1
194,157,22,0.249466390189814,1
194,158,22,0.237603458592397,1
194,159,22,0.15924156839971,1
195,153,22,0.121304784450843,1
195,154,22,0.150827786507838,1
195,155,22,0.153990711255829,1
195,156,22,0.161284018538107,1
195,157,22,0.165914152392084,1
195,158,22,0.136529198761375,1
196,154,22,0.121035259089644,1
196,155,22,0.13916112816349,1
196,156,22,0.17892552865646,1
196,157,22,0.199961484936587,1
196,158,22,0.139552485206136,1
197,155,22,0.135428144204241,1
197,156,22,0.207451878075705,1
197,157,22,0.259236666867973,1
197,158,22,0.187842983564488,1
197,159,22,0.124591401625151,1
198,156,22,0.146721169689663,1
198,157,22,0.188370068990767,1
198,158,22,0.160191867291864,1
198,159,22,0.133684920683748,1
198,160,22,0.142610536960093,1
198,161,22,0.136345927168656,1
198,167,22,0.119675431450206,1
198,169,22,0.137292398579277,1
198,170,22,0.149059407601016,1
199,160,22,0.130455209327203,1
199,161,22,0.165016825844361,1
199,162,22,0.182259359287599,1
199,163,22,0.154047063560878,1
199,164,22,0.117426497515694,1
199,166,22,0.1418952218804,1
199,167,22,0.131517989068995,1
200,161,22,0.128980227489486,1
200,162,22,0.162390466899987,1
154,193,23,0.157874097574069,1
154,194,23,0.232275674958114,1
154,195,23,0.181619369044498,1
155,193,23,0.21135659229874,1
155,194,23,0.315697389747098,1
155,195,23,0.242781699578925,1
155,196,23,0.130591726760875,1
155,197,23,0.147018994860481,1
155,198,23,0.21763507523863,1
155,199,23,0.161721788210679,1
156,193,23,0.140915103962878,1
156,194,23,0.178626231377359,1
156,195,23,0.141644033099966,1
156,197,23,0.162888251483014,1
156,198,23,0.241977480935844,1
156,199,23,0.187390799007615,1
157,198,23,0.126354445611558,1
190,190,23,0.148093822336457,1
190,191,23,0.180646175924336,1
192,156,23,0.140209999426231,1
192,157,23,0.154226366349668,1
192,158,23,0.169010502515115,1
192,159,23,0.188640501170668,1
192,160,23,0.158388887951974,1
193,155,23,0.192513700499594,1
193,156,23,0.283635601523229,1
193,157,23,0.314039654498777,1
193,158,23,0.309259589360459,1
193,159,23,0.251565286848189,1
193,160,23,0.14591478410319,1
194,154,23,0.159284648176484,1
194,155,23,0.223286416496507,1
194,156,23,0.281208365833559,3
194,157,23,0.306491554714991,3
194,158,23,0.278288032753632,1
194,159,23,0.18041419521277,1
195,153,23,0.156373512829106,1
195,154,23,0.181244193416091,1
195,155,23,0.187800539738491,1
195,156,23,0.198492650623057,1
195,157,23,0.202113259724465,1
195,158,23,0.165821232917302,1
196,154,23,0.148210118890762,1
196,155,23,0.178229833835954,1
196,156,23,0.208812365219654,1
196,157,23,0.204634828112868,1
196,158,23,0.143301332604235,1
197,155,23,0.167534119230313,1
197,156,23,0.214201694757005,1
197,157,23,0.220271279643197,1
197,158,23,0.163419635465477,1
197,159,23,0.130441206633221,1
197,160,23,0.124411568877379,1
198,156,23,0.129297767134422,1
198,157,23,0.141920082845072,1
198,158,23,0.128739414128226,1
198,159,23,0.129015204782274,1
198,160,23,0.151484111264441,1
198,161,23,0.138247879292585,1
198,166,23,0.118428473296992,1
198,167,23,0.139247805899155,1
198,168,23,0.115046098423134,1
198,169,23,0.147113916402527,1
198,170,23,0.170021416937904,1
199,161,23,0.130259218718924,1
199,162,23,0.147365034521764,1
199,163,23,0.137851552412378,1
199,165,23,0.116664805136673,1
199,166,23,0.157868503562596,1
199,167,23,0.153147899822019,1
154,193,24,0.138202361704495,1
154,194,24,0.176230769672855,1
154,195,24,0.128548770217229,1
155,192,24,0.124327387837361,1
155,193,24,0.226224815289274,1
155,194,24,0.267493239372155,1
155,195,24,0.176168328727951,1
155,198,24,0.162063882621764,1
155,199,24,0.138549355291944,1
156,192,24,0.126485451471821,1
156,193,24,0.17179900535414,1
156,194,24,0.169630566300507,1
156,195,24,0.11398751124573,1
156,197,24,0.122063768150624,1
156,198,24,0.194527791944039,1
156,199,24,0.184193697793741,1
157,198,24,0.119180897282267,1
157,199,24,0.130932419724875,1
189,191,24,0.130430525015524,1
189,192,24,0.128950632224577,1
190,190,24,0.145196630798729,1
190,191,24,0.221939166550233,1
190,192,24,0.19972406331281,1
191,190,24,0.120991237163569,1
191,191,24,0.161401586993968,1
192,156,24,0.137982852694297,1
192,157,24,0.13558891020554,1
192,158,24,0.144772333861157,1
192,159,24,0.168744945957845,1
192,160,24,0.154184664466246,1
193,154,24,0.13204741809166,1
193,155,24,0.234662892856238,1
193,156,24,0.305597643458483,3
193,157,24,0.300582700499499,3
193,158,24,0.281286846870307,1
193,159,24,0.232431906865904,1
193,160,24,0.144726674950671,1
194,153,24,0.133466236054188,1
194,154,24,0.190994284545482,1
194,155,24,0.267827961464963,3
194,156,24,0.323205895706522,3
194,157,24,0.331244478416255,3
194,158,24,0.285919489196798,3
194,159,24,0.182727666374381,1
195,154,24,0.191463133368111,1
195,155,24,0.208442288974338,1
195,156,24,0.221259476490972,3
195,157,24,0.224471852300385,3
195,158,24,0.184033508858889,1
196,155,24,0.216287095126648,1
196,156,24,0.216953336004641,1
196,157,24,0.185310827773318,1
196,158,24,0.138149401136929,1
196,174,24,0.113849509926909,1
197,156,24,0.20285352998376,1
197,157,24,0.165960082170493,1
197,158,24,0.132518975593528,1
197,159,24,0.129994192120636,1
197,160,24,0.128322960583582,1
198,159,24,0.118095270419932,1
198,160,24,0.143100866786778,1
198,161,24,0.129419386832276,1
198,166,24,0.114773781944632,1
198,167,24,0.150054682345413,1
198,168,24,0.130864208115504,1
198,169,24,0.146352506668297,1
199,162,24,0.114973906232968,1
199,166,24,0.155735866182389,1
154,194,25,0.122122181407268,1
155,192,25,0.13015248498002,1
155,193,25,0.199273503963481,1
155,194,25,0.187965592519108,1
156,192,25,0.146337879800404,1
156,193,25,0.171969404832039,1
156,194,25,0.137938336139839,1
156,198,25,0.133609501632227,1
156,199,25,0.149942813892821,1
157,199,25,0.129641015678401,1
157,200,25,0.117162766372694,1
189,191,25,0.124789464961891,1
189,192,25,0.154432638162191,1
189,193,25,0.128698760385901,1
190,190,25,0.118041956546378,1
190,191,25,0.215689183626689,1
190,192,25,0.262313373178083,1
190,193,25,0.189734513161779,1
191,191,25,0.157730302037049,1
191,192,25,0.175213366196757,1
192,156,25,0.127076002430368,1
192,157,25,0.117608732744182,1
192,158,25,0.1193705166059,1
192,159,25,0.133285013636198,1
192,160,25,0.128502769777622,1
193,154,25,0.173420585623047,1
193,155,25,0.257464648909476,1
193,156,25,0.292723243925563,3
193,157,25,0.264924210212729,3
193,158,25,0.229308964578861,1
193,159,25,0.18537853297744,1
193,160,25,0.12689021058827,1
194,154,25,0.22931513565678,1
194,155,25,0.298535080316815,3
194,156,25,0.344883149461906,3
194,157,25,0.338532121025861,3
194,158,25,0.274263547800746,3
194,159,25,0.17201614721422,1
195,155,25,0.218055061843151,1
195,156,25,0.240175172877331,3
195,157,25,0.250147140167037,3
195,158,25,0.209118069114,1
195,159,25,0.129869828412943,1
195,175,25,0.128048406500491,1
195,176,25,0.138912883599621,1
196,156,25,0.201639358626211,1
196,157,25,0.170553684185336,1
196,158,25,0.147083367211452,1
196,159,25,0.118380835872975,1
196,173,25,0.132126122888867,1
196,174,25,0.168739104632181,1
196,175,25,0.145416905305233,1
197,157,25,0.127127396674722,1
197,158,25,0.11492069835121,1
197,159,25,0.126434257434194,1
197,160,25,0.118450425375699,1
198,160,25,0.119405093485235,1
198,167,25,0.138151038121339,1
198,168,25,0.133310310344922,1
155,192,26,0.119743843266303,1
155,193,26,0.149453485099767,1
155,194,26,0.119944144207633,1
156,192,26,0.140175410770029,1
156,193,26,0.141670342619188,1
182,169,26,0.120250896243076,1
183,168,26,0.122893860568875,1
183,169,26,0.126962143687378,1
189,192,26,0.145153527468222,1
189,193,26,0.140016670389727,1
190,191,26,0.169620803278378,1
190,192,26,0.259232968931967,1
190,193,26,0.221816640033676,1
191,191,26,0.129652451015538,1
191,192,26,0.173793146787144,1
193,154,26,0.204434927584992,1
193,155,26,0.240564209877324,1
193,156,26,0.245295401020668,1
193,157,26,0.213726639525858,1
193,158,26,0.171118455583643,1
193,159,26,0.133110986883492,1
194,154,26,0.254803807300696,1
194,155,26,0.292985962258064,1
194,156,26,0.319397327819624,3
194,157,26,0.305374990024994,3
194,158,26,0.238272549472024,1
194,159,26,0.147456952962914,1
195,155,26,0.212296810193377,1
195,156,26,0.232192129868874,1
195,157,26,0.248750074076489,1
195,158,26,0.224572827151688,1
195,159,26,0.144755716702866,1
195,174,26,0.145563491959557,1
195,175,26,0.163731757751934,1
195,176,26,0.156749359738889,1
195,177,26,0.114837117931372,1
196,156,26,0.171842332445106,1
196,157,26,0.159889378482007,1
196,158,26,0.165485462683398,1
196,159,26,0.135709811514553,1
196,173,26,0.161333340053998,1
196,174,26,0.206965917466402,1
196,175,26,0.172606580404105,1
196,176,26,0.117110312210377,1
197,174,26,0.137582309695969,1
182,168,27,0.149711751776823,1
182,169,27,0.196205700964262,1
182,170,27,0.123010239561245,1
183,168,27,0.18218821523853,1
183,169,27,0.215373846255743,1
183,170,27,0.115236283036347,1
184,168,27,0.117293736902358,1
184,169,27,0.114555226860601,1
189,192,27,0.117708965652911,1
189,193,27,0.129464562891245,1
190,191,27,0.121474230002575,1
190,192,27,0.208987322344795,1
190,193,27,0.208396123658603,1
191,192,27,0.148953427581553,1
193,154,27,0.199138187770167,1
193,155,27,0.194685295753385,1
193,156,27,0.186544890257978,1
193,157,27,0.163572310759656,1
193,158,27,0.128692389101255,1
194,155,27,0.248052294750655,1
194,156,27,0.253791232339765,1
194,157,27,0.242997710859844,1
194,158,27,0.199414190407808,1
194,159,27,0.129271952243583,1
195,156,27,0.198510245261248,1
195,157,27,0.219849196756481,1
195,158,27,0.226470786917955,1
195,159,27,0.159357676524155,1
195,174,27,0.159315044268298,1
195,175,27,0.166286878432309,1
195,176,27,0.138988337981741,1
196,157,27,0.147636561950226,1
196,158,27,0.175396366921553,1
196,159,27,0.146511152833669,1
196,172,27,0.133329365314529,1
196,173,27,0.167297898846894,1
196,174,27,0.204852511708796,1
196,175,27,0.170376454125008,1
197,171,27,0.113891306025261,1
197,172,27,0.135159042810228,1
197,174,27,0.12226351557924,1
178,202,28,0.122393861934992,1
179,202,28,0.117332647668477,1
182,168,28,0.160579738382098,1
182,169,28,0.24453152992139,1
182,170,28,0.153501300024713,1
183,168,28,0.205129621371865,1
183,169,28,0.27689270963929,1
183,170,28,0.146826219336691,1
184,168,28,0.126631567051494,1
184,169,28,0.138044316159302,1
190,192,28,0.144389185294293,1
190,193,28,0.162201024229348,1
191,192,28,0.117509689298946,1
193,155,28,0.152121063076048,1
193,156,28,0.144461825005377,1
193,157,28,0.129993885922113,1
194,155,28,0.191831902381273,1
194,156,28,0.186498666057913,1
194,157,28,0.183438011616512,1
194,158,28,0.168008632725612,1
194,159,28,0.121279464188387,1
195,156,28,0.161104009137341,1
195,157,28,0.182982105569902,1
195,158,28,0.209080807109157,1
195,159,28,0.16468501263752,1
195,173,28,0.114341135208883,1
195,174,28,0.147839465578999,1
195,175,28,0.140679543083969,1
196,157,28,0.131058962152826,1
196,158,28,0.160596591077714,1
196,159,28,0.138680537805201,1
196,171,28,0.116326620645186,1
196,172,28,0.151383430834794,1
196,173,28,0.157147559140831,1
196,174,28,0.177625598158814,1
196,175,28,0.149032980313131,1
197,172,28,0.124153467076451,1
182,168,29,0.15258779206275,1
182,169,29,0.241910093707112,1
182,170,29,0.162916739722494,1
183,168,29,0.198885479773986,1
183,169,29,0.282180216390967,1
183,170,29,0.161819406655098,1
184,168,29,0.13123516762579,1
184,169,29,0.148108190113293,1
186,167,29,0.12042499365698,1
187,167,29,0.113980633555834,1
193,156,29,0.115628664666358,1
194,156,29,0.1305341967692,1
194,157,29,0.137030316197553,1
194,158,29,0.142596275175054,1
194,159,29,0.117579808760651,1
195,157,29,0.147062180629052,1
195,158,29,0.17574380802992,1
195,159,29,0.155546070205763,1
195,174,29,0.114675645318097,1
196,158,29,0.128386414338985,1
196,159,29,0.11645595419044,1
196,171,29,0.130962650940562,1
196,172,29,0.157274113345648,1
196,173,29,0.139259735864675,1
196,174,29,0.136615169885064,1
196,175,29,0.115045627348484,1
179,171,30,0.140531649197491,1
180,171,30,0.138282232411462,1
182,168,30,0.132504937568948,1
182,169,30,0.196363593410193,1
182,170,30,0.148791672323488,1
183,168,30,0.167974974441845,1
183,169,30,0.229095120241333,1
183,170,30,0.150560451643763,1
184,168,30,0.120986220218543,1
184,169,30,0.131722317698586,1
194,158,30,0.115750932091857,1
195,158,30,0.133193731145826,1
195,159,30,0.131358530299851,1
196,171,30,0.125873431286084,1
196,172,30,0.13714601213168,1
179,170,31,0.122825307430383,1
179,171,31,0.158160746498808,1
180,170,31,0.157225321788738,1
180,171,31,0.169447542021979,1
181,170,31,0.122846329136655,1
182,169,31,0.139705890666023,1
182,170,31,0.117115270271072,1
183,168,31,0.137515205112027,1
183,169,31,0.155493710258376,1
183,170,31,0.113774079098521,1
179,170,32,0.121039640083893,1
179,171,32,0.139896923213607,1
180,170,32,0.170367103293198,1
180,171,32,0.17259797151487,1
181,170,32,0.118985519071033,1
180,170,33,0.146688783307451,1
180,171,33,0.14361390241161,1
190,157,33,0.121793053325933,1
191,157,33,0.12752494834902,1
190,157,34,0.146289606425609,1
191,157,34,0.134318951832523,1
174,173,36,0.123469407799809,1
175,173,36,0.147126859178546,1
191,158,36,0.144920522169291,1
191,159,36,0.118978641381138,1
174,173,37,0.162795649983621,1
174,174,37,0.12632897224984,1
175,172,37,0.113970705657578,1
175,173,37,0.176236022155206,1
175,174,37,0.127514832020904,1
190,158,37,0.123109118130354,1
190,159,37,0.114271722359153,1
191,157,37,0.163854213607293,1
191,158,37,0.190842539623738,1
191,159,37,0.152947116029172,1
191,160,37,0.116034695684363,1
192,158,37,0.181207602692625,1
192,159,37,0.144176801288182,1
192,160,37,0.118610484765022,1
171,177,38,0.113912586822591,1
173,173,38,0.118749699101067,1
173,174,38,0.130154333948023,1
173,175,38,0.123134355954746,1
174,172,38,0.156396913462362,1
174,173,38,0.195632356007318,1
174,174,38,0.160415462874654,1
175,172,38,0.141878227862389,1
175,173,38,0.183858422188219,1
175,174,38,0.133902321634885,1
190,158,38,0.132619538254512,1
190,159,38,0.127675232939348,1
191,158,38,0.217748604229365,1
191,159,38,0.178837543688641,1
191,160,38,0.131739794568114,1
192,159,38,0.164751127964697,1
192,160,38,0.132388287708654,1
193,160,38,0.12455177247019,1
193,161,38,0.120481416623226,1
197,168,38,0.121857731875426,1
170,177,39,0.118535819432941,1
170,178,39,0.114440202207852,1
171,176,39,0.12449835260484,1
171,177,39,0.132562903304673,1
172,175,39,0.129159118087957,1
172,176,39,0.1268421727508,1
173,172,39,0.113779390465204,1
173,173,39,0.143175861871114,1
173,174,39,0.177891614013868,1
173,175,39,0.168575300199387,1
174,171,39,0.146144762747492,1
174,172,39,0.193607700713838,1
174,173,39,0.213154024734622,1
174,174,39,0.190411718302258,1
174,175,39,0.1305207240342,1
175,171,39,0.129632630549624,1
175,172,39,0.172120714009732,1
175,173,39,0.180256608965361,1
175,174,39,0.134281842926941,1
190,159,39,0.13564705259426,1
190,160,39,0.12559595654016,1
191,158,39,0.205800549442629,1
191,159,39,0.186046033980122,1
191,160,39,0.144859800646861,1
192,159,39,0.167998292637037,1
192,160,39,0.139769874380407,1
193,160,39,0.125265956970722,1
193,161,39,0.126849462631014,1
194,161,39,0.115350553969657,1
197,168,39,0.122091973745314,1
197,169,39,0.128233362185085,1
169,179,40,0.136995162251771,1
170,177,40,0.114744740192438,1
170,178,40,0.12428017438053,1
170,179,40,0.114152187166626,1
171,176,40,0.129250435908928,1
171,177,40,0.128595748136735,1
172,174,40,0.117728338597907,1
172,175,40,0.153935783951598,1
172,176,40,0.142639084083904,1
173,172,40,0.12066656073768,1
173,173,40,0.155146375141805,1
173,174,40,0.208799434220502,1
173,175,40,0.191373322986022,1
173,176,40,0.114230585765311,1
174,171,40,0.171279551337197,1
174,172,40,0.2217678366999,1
174,173,40,0.228927747418063,1
174,174,40,0.218818838727499,1
174,175,40,0.14662796757009,1
175,171,40,0.167121811142593,1
175,172,40,0.219246974923472,1
175,173,40,0.199499407812057,1
175,174,40,0.149301657739959,1
176,172,40,0.124317777914494,1
187,161,40,0.116669657205572,1
188,160,40,0.128348410391568,1
188,161,40,0.124387308532886,1
189,160,40,0.125049239077828,1
190,159,40,0.136294580031767,1
190,160,40,0.137049677365683,1
191,159,40,0.169901316455796,1
191,160,40,0.150525321251713,1
191,161,40,0.114810243122569,1
192,160,40,0.135500524824268,1
192,161,40,0.114158169814686,1
193,161,40,0.119193533859762,1
194,161,40,0.118135959492856,1
194,162,40,0.116315385514775,1
197,168,40,0.1248450282169,1
197,169,40,0.150089306332214,1
169,179,41,0.145631927329386,1
170,178,41,0.118281321353088,1
170,179,41,0.119558251630931,1
171,176,41,0.118352818708146,1
172,174,41,0.128501874735786,1
172,175,41,0.166734587780003,1
172,176,41,0.146516499530951,1
173,172,41,0.115772530864576,1
173,173,41,0.150048228622703,1
173,174,41,0.206451786593008,1
173,175,41,0.190167725187109,1
173,176,41,0.119205770023805,1
174,171,41,0.169321953520195,1
174,172,41,0.224067717357848,1
174,173,41,0.229812142966634,1
174,174,41,0.229105742974699,1
174,175,41,0.154556507241501,1
175,170,41,0.119861258622904,1
175,171,41,0.201454037858762,1
175,172,41,0.265248545109496,1
175,173,41,0.228732392760562,1
175,174,41,0.177092742068069,1
176,170,41,0.116788674215983,1
176,171,41,0.147923163767501,1
176,172,41,0.167287440989656,1
176,173,41,0.133755275682778,1
178,169,41,0.114724601751135,1
186,161,41,0.128831356123108,1
186,162,41,0.116117133748174,1
187,160,41,0.124576492112467,1
187,161,41,0.137401770336222,1
188,160,41,0.142037027127022,1
188,161,41,0.139203619096952,1
189,159,41,0.124050313504891,1
189,160,41,0.141649697772637,1
189,161,41,0.128704872579489,1
190,159,41,0.144189520303741,1
190,160,41,0.153436421268493,1
190,161,41,0.133285720248173,1
191,159,41,0.153222188294379,1
191,160,41,0.156125303595835,1
191,161,41,0.132926655372809,1
192,160,41,0.131577132491347,1
192,161,41,0.119909272906641,1
194,162,41,0.120467990995691,1
194,163,41,0.11440501293147,1
197,168,41,0.132745668492144,1
197,169,41,0.174662197078979,1
197,170,41,0.143110535593977,1
198,169,41,0.228748220868814,1
169,179,42,0.133375954597448,1
172,174,42,0.126434610740182,1
172,175,42,0.162007506762983,1
172,176,42,0.140762511106763,1
173,173,42,0.137970192563069,1
173,174,42,0.182914294373984,1
173,175,42,0.174481740157296,1
173,176,42,0.116828574238868,1
174,171,42,0.149012253028515,1
174,172,42,0.204132309229605,1
174,173,42,0.21748800573279,1
174,174,42,0.226857397883499,1
174,175,42,0.160953277026094,1
175,170,42,0.136493832832,1
175,171,42,0.229201700880976,1
175,172,42,0.292617346344164,1
175,173,42,0.249691281227892,1
175,174,42,0.211915828569905,1
175,175,42,0.140529976882483,1
176,170,42,0.16745517889578,1
176,171,42,0.215311852831757,1
176,172,42,0.217151611324974,1
176,173,42,0.155455046806448,1
176,174,42,0.116766027302168,1
177,169,42,0.129275026005676,1
177,170,42,0.147890000112116,1
177,171,42,0.129980472071444,1
178,165,42,0.128809392267536,1
178,169,42,0.128507845606979,1
179,164,42,0.167895881008051,1
179,165,42,0.132249026265144,1
179,168,42,0.114414410870745,1
180,163,42,0.17900359750289,1
180,164,42,0.161643613372453,1
180,165,42,0.114693345948084,1
181,162,42,0.123507176209901,1
181,163,42,0.161197670554697,1
181,164,42,0.142030196544592,1
182,162,42,0.132802126788988,1
182,163,42,0.140318935439125,1
182,164,42,0.123748837505532,1
183,161,42,0.121970542477319,1
183,162,42,0.136110095421823,1
183,163,42,0.12724207979835,1
184,161,42,0.130285363362018,1
184,162,42,0.137259411576886,1
184,163,42,0.126646182142521,1
185,160,42,0.138733698579493,1
185,161,42,0.159683365760542,1
185,162,42,0.148774065908431,1
185,163,42,0.119747576532908,1
186,160,42,0.15009306315255,1
186,161,42,0.166875992613173,1
186,162,42,0.140742396219193,1
187,160,42,0.140645931907667,1
187,161,42,0.144956983347228,1
188,159,42,0.115650275215943,1
188,160,42,0.141619407672619,1
188,161,42,0.140163386589579,1
189,159,42,0.128268527907734,1
189,160,42,0.147928816663305,1
189,161,42,0.147869614356622,1
189,162,42,0.11473994700787,1
190,159,42,0.148219234185247,1
190,160,42,0.167034026381499,1
190,161,42,0.170150196970444,1
190,162,42,0.126570292016349,1
191,160,42,0.159415736474811,1
191,161,42,0.160961721039202,1
191,162,42,0.118390351580912,1
192,161,42,0.127479890058714,1
193,163,42,0.117032749769197,1
194,162,42,0.11691840817469,1
194,163,42,0.124854496817373,1
194,164,42,0.126926059369161,1
194,165,42,0.121465962642461,1
195,164,42,0.120587938378537,1
195,165,42,0.121362856178365,1
195,166,42,0.114852745832897,1
196,165,42,0.122066700590322,1
196,166,42,0.11495797213292,1
197,168,42,0.146136142081391,1
197,169,42,0.206547367639565,1
197,170,42,0.184211822390913,1
198,169,42,0.272734439485703,1
198,170,42,0.247989547607228,1
172,174,43,0.120125955468936,1
172,175,43,0.143120510599698,1
172,176,43,0.126646347018649,1
173,173,43,0.126746438604982,1
173,174,43,0.158489639042818,1
173,175,43,0.160911787126265,1
173,176,43,0.114947537829414,1
174,171,43,0.125671634682739,1
174,172,43,0.168443210867428,1
174,173,43,0.187214087129402,1
174,174,43,0.213961069825605,1
174,175,43,0.183339121270537,1
175,170,43,0.151721073590434,1
175,171,43,0.246505120722772,1
175,172,43,0.280839043307683,1
175,173,43,0.237099267394125,1
175,174,43,0.232038700855255,1
175,175,43,0.186715007091087,1
176,169,43,0.125107546342675,1
176,170,43,0.225047599738045,1
176,171,43,0.29075450519308,1
176,172,43,0.249489519955146,1
176,173,43,0.161879091813297,1
176,174,43,0.131988050908849,1
177,169,43,0.138405159341472,1
177,170,43,0.184444179962199,1
177,171,43,0.169972507612331,1
177,172,43,0.118608094061171,1
178,165,43,0.134445918227659,1
178,166,43,0.120475693066224,1
178,169,43,0.127019285042466,1
178,170,43,0.11509685671671,1
179,164,43,0.209200342301684,1
179,165,43,0.164594201221798,1
179,166,43,0.138738067796875,1
180,163,43,0.237486113896994,1
180,164,43,0.23111572429282,1
180,165,43,0.159050547628992,1
180,166,43,0.117597803812294,1
181,163,43,0.224579045337072,1
181,164,43,0.2013143406712,1
181,165,43,0.132122401399129,1
182,162,43,0.175211046154104,1
182,163,43,0.203449368755258,1
182,164,43,0.164251529744266,1
182,165,43,0.115834288751237,1
183,161,43,0.145590013462371,1
183,162,43,0.201552280477093,1
183,163,43,0.197422239471929,1
183,164,43,0.150087056950758,1
184,160,43,0.135598060830623,1
184,161,43,0.170804908296369,1
184,162,43,0.204053262903276,1
184,163,43,0.183338497096626,1
184,164,43,0.1347902620202,1
185,160,43,0.182086675097647,1
185,161,43,0.213729348205097,1
185,162,43,0.195419336050429,1
185,163,43,0.147068834558489,1
186,159,43,0.140110885319797,1
186,160,43,0.18847623744009,1
186,161,43,0.194173108062923,1
186,162,43,0.15680526452302,1
187,159,43,0.13416062364254,1
187,160,43,0.148077440715491,1
187,161,43,0.141311843033404,1
187,162,43,0.118111428280439,1
188,160,43,0.130875137047393,1
188,161,43,0.134153533969052,1
188,162,43,0.117118567793625,1
189,159,43,0.125158964140761,1
189,160,43,0.151392828774069,1
189,161,43,0.170822750248751,1
189,162,43,0.145026089998435,1
190,160,43,0.187628185300794,1
190,161,43,0.219608430502687,1
190,162,43,0.177190501834883,1
191,160,43,0.166656189181318,1
191,161,43,0.190686095732356,1
191,162,43,0.154024993713509,1
192,161,43,0.131328240199834,1
192,162,43,0.121764824177511,1
192,163,43,0.114772863349064,1
193,163,43,0.136048761502348,1
193,164,43,0.136578214078744,1
193,165,43,0.115051927971932,1
194,163,43,0.138817479206058,1
194,164,43,0.159869169379507,1
194,165,43,0.156493519096283,1
194,166,43,0.126027107613895,1
195,164,43,0.160260149562433,1
195,165,43,0.161860908331794,1
195,166,43,0.145034380912281,1
195,167,43,0.11688079286386,1
196,165,43,0.146821072846136,1
196,166,43,0.141952257243691,1
196,167,43,0.133180859031005,1
197,169,43,0.231206147071955,1
197,170,43,0.228083016355052,1
197,171,43,0.130433952083606,1
198,170,43,0.278417436960084,1
172,174,44,0.115329991561169,1
172,175,44,0.124911426188868,1
172,176,44,0.116506064756371,1
173,173,44,0.126312637736339,1
173,174,44,0.153599448428113,1
173,175,44,0.171188940128202,1
173,176,44,0.134897902577805,1
174,171,44,0.114128904302033,1
174,172,44,0.143592633391147,1
174,173,44,0.166486037017611,1
174,174,44,0.210194003615404,1
174,175,44,0.234344587714995,1
174,176,44,0.148706113390118,1
175,170,44,0.160804075907462,1
175,171,44,0.254272128896576,1
175,172,44,0.253577105357447,1
175,173,44,0.212500479318457,1
175,174,44,0.230112311733838,1
175,175,44,0.230337202771916,1
175,176,44,0.122231470726149,1
176,169,44,0.128709948408846,1
176,170,44,0.257379761257483,1
176,171,44,0.344783540727089,4
176,172,44,0.26498886520849,1
176,173,44,0.165194738962933,1
176,174,44,0.138387835571205,1
176,175,44,0.123210022320459,1
177,169,44,0.135139469658506,1
177,170,44,0.202562429403575,1
177,171,44,0.209652409089894,1
177,172,44,0.14160215456355,1
178,166,44,0.118132909284495,1
178,169,44,0.116975066678261,1
178,170,44,0.115510954888101,1
179,164,44,0.25865715083311,5
179,165,44,0.201854710402619,1
179,166,44,0.15257249391348,1
179,167,44,0.117245911048481,1
180,164,44,0.312332456412169,5
180,165,44,0.220835556413121,1
180,166,44,0.142517393724852,1
181,163,44,0.2524331241228,1
181,164,44,0.251611263734064,1
181,165,44,0.166651772856471,1
182,162,44,0.199564792973526,1
182,163,44,0.261441060694294,1
182,164,44,0.209588060292656,1
182,165,44,0.134914555066695,1
183,161,44,0.149370505300108,1
183,162,44,0.256860189471877,1
183,163,44,0.301917137215284,6
183,164,44,0.219992827417374,1
183,165,44,0.132714047606239,1
184,161,44,0.186291817178943,1
184,162,44,0.258152582775118,1
184,163,44,0.261681944716752,1
184,164,44,0.182831691434045,1
185,160,44,0.193956531492424,1
185,161,44,0.232665936752198,1
185,162,44,0.223182732965964,1
185,163,44,0.17428854066632,1
185,164,44,0.118159324795514,1
186,160,44,0.200023054393388,1
186,161,44,0.197316895403244,1
186,162,44,0.159581201445747,1
186,163,44,0.116938393516731,1
187,160,44,0.147753105818724,1
187,161,44,0.132313893244497,1
187,162,44,0.11887617086782,1
188,160,44,0.124036357918374,1
188,161,44,0.131502478936133,1
188,162,44,0.126324438156331,1
189,160,44,0.162859021300959,1
189,161,44,0.201162371988997,1
189,162,44,0.177104424719397,1
189,163,44,0.118978323405749,1
190,160,44,0.215534412050316,1
190,161,44,0.269848636177648,1
190,162,44,0.226768835849233,1
190,163,44,0.147172306105438,1
191,161,44,0.206914476114584,1
191,162,44,0.181437416460799,1
191,163,44,0.136825728476905,1
192,162,44,0.130207965796966,1
192,163,44,0.128937536349298,1
193,163,44,0.145133094605263,1
193,164,44,0.147108063299997,1
193,165,44,0.12359506696279,1
194,164,44,0.195644580394495,1
194,165,44,0.183174786878762,1
194,166,44,0.141501167935381,1
195,165,44,0.200392259150602,1
195,166,44,0.165419995083865,1
195,167,44,0.137277288859867,1
196,166,44,0.159096124101413,1
196,167,44,0.169035010173799,1
196,169,44,0.135807983471686,1
196,170,44,0.140355632154387,1
197,170,44,0.267903780929937,1
173,173,45,0.131390115855157,1
173,174,45,0.15442206253629,1
173,175,45,0.18605195774385,1
173,176,45,0.168935625199441,1
174,172,45,0.128559440058059,1
174,173,45,0.153751758639438,1
174,174,45,0.197890405236315,1
174,175,45,0.266966012623482,1
174,176,45,0.206184687266259,1
175,170,45,0.157507059760248,1
175,171,45,0.246202455259921,4
175,172,45,0.22366918820365,1
175,173,45,0.185704222213827,1
175,174,45,0.200883095382536,1
175,175,45,0.233563687267107,1
175,176,45,0.147540403837223,1
176,169,45,0.116710299171031,1
176,170,45,0.255935517040701,4
176,171,45,0.376155581447912,4
176,172,45,0.28347310432259,4
176,173,45,0.175178977747281,1
176,174,45,0.137070781510018,1
176,175,45,0.125284470204481,1
177,169,45,0.120586666476981,1
177,170,45,0.204210696051424,1
177,171,45,0.26227498059408,4
177,172,45,0.192682851629669,1
177,173,45,0.119588671276478,1
178,164,45,0.189436122701379,5
178,166,45,0.123559547934154,1
178,167,45,0.11930292917044,1
178,168,45,0.115519516669872,1
178,171,45,0.116782538468663,1
179,163,45,0.209506823469203,5
179,164,45,0.330220173696529,5
179,165,45,0.270418565843376,5
179,166,45,0.161559467663034,1
179,167,45,0.11431473147473,1
180,163,45,0.258131714168107,5
180,164,45,0.377408451587988,5
180,165,45,0.292454919804723,5
180,166,45,0.161630847249428,1
181,163,45,0.236532470374822,1
181,164,45,0.278091052888587,5
181,165,45,0.209193323289394,1
181,166,45,0.130975440617319,1
182,163,45,0.283197172346147,6
182,164,45,0.248605195067773,1
182,165,45,0.165528224484783,1
182,166,45,0.113801307213312,1
183,162,45,0.260543168856991,6
183,163,45,0.368189991755251,6
183,164,45,0.284111952209665,6
183,165,45,0.164047142230344,1
184,161,45,0.171772130545338,1
184,162,45,0.258407975896806,1
184,163,45,0.302555042953058,6
184,164,45,0.220184931659787,1
184,165,45,0.137995701255386,1
185,161,45,0.209588602028504,1
185,162,45,0.21793931880156,1
185,163,45,0.192094585383175,1
185,164,45,0.141633669457658,1
186,160,45,0.182285280170235,1
186,161,45,0.177864303461014,1
186,162,45,0.157349921033756,1
186,163,45,0.135010112559519,1
187,161,45,0.12335667963598,1
187,162,45,0.118850061555325,1
188,160,45,0.125727409921341,1
188,161,45,0.13302363786645,1
188,162,45,0.134894534394055,1
188,163,45,0.120673685741767,1
189,160,45,0.175516137651405,1
189,161,45,0.223808037456841,1
189,162,45,0.20653853498987,1
189,163,45,0.165635547067,1
190,161,45,0.28970087607637,1
190,162,45,0.256043393135632,1
190,163,45,0.197169295938423,1
190,164,45,0.120392513059838,1
191,162,45,0.192599812945678,1
191,163,45,0.163540101030438,1
192,163,45,0.134809693849527,1
193,164,45,0.150961489270474,1
193,165,45,0.130999512531952,1
194,165,45,0.213145168531196,1
194,166,45,0.156686035529015,1
195,166,45,0.18259130203997,1
195,167,45,0.158662405670834,1
195,168,45,0.143829207080553,1
196,169,45,0.187502867666934,1
196,170,45,0.187515669120557,1
196,171,45,0.133724832483499,1
197,170,45,0.29075189072877,1
172,176,46,0.116514155463491,1
173,173,46,0.133662579968455,1
173,174,46,0.158049113583541,1
173,175,46,0.19419427109159,1
173,176,46,0.200830758988882,1
173,177,46,0.126312967488595,1
174,172,46,0.117894145097964,1
174,173,46,0.148263444541182,1
174,174,46,0.186740704213263,1
174,175,46,0.263197674511724,1
174,176,46,0.244754842859389,1
174,177,46,0.120694342365185,1
175,170,46,0.139050060537803,1
175,171,46,0.218879536696197,4
175,172,46,0.202293445778224,1
175,173,46,0.169444350491223,1
175,174,46,0.170677093966862,1
175,175,46,0.20404815174332,1
175,176,46,0.160282820029981,1
176,170,46,0.224213938929317,4
176,171,46,0.376480811386515,4
176,172,46,0.313075741549227,4
176,173,46,0.195561435718708,1
176,174,46,0.136331064763437,1
176,175,46,0.116975997050696,1
177,170,46,0.192590850750455,1
177,171,46,0.310253062244318,4
177,172,46,0.263250434872563,1
177,173,46,0.161318348103251,1
178,164,46,0.220878471313768,5
178,165,46,0.235789491436287,5
178,166,46,0.162856995679963,1
178,167,46,0.138350585343228,1
178,168,46,0.125369122319149,1
178,171,46,0.142366025662828,1
178,172,46,0.129667796272273,1
179,163,46,0.185374776157103,5
179,164,46,0.365559416692756,5
179,165,46,0.347288268196742,5
179,166,46,0.189311499902629,5
179,167,46,0.117247124065706,1
180,163,46,0.214798970306186,5
180,164,46,0.379051654183345,5
180,165,46,0.34133197676396,5
180,166,46,0.180717202204742,5
181,164,46,0.27692003196901,5
181,165,46,0.249757938290917,5
181,166,46,0.156761089497683,1
182,163,46,0.262584829945349,6
182,164,46,0.264913092850981,1
182,165,46,0.201104806666724,1
182,166,46,0.139058622319573,1
183,162,46,0.227499378416999,6
183,163,46,0.356856383188702,6
183,164,46,0.308180639981293,6
183,165,46,0.19233698862138,1
183,166,46,0.133997832020244,1
184,162,46,0.218709219656362,1
184,163,46,0.288508115061679,6
184,164,46,0.239614782473272,1
184,165,46,0.166793059920978,1
184,166,46,0.128296156435977,1
185,161,46,0.161480892411355,1
185,162,46,0.18720751563803,1
185,163,46,0.198948368239808,1
185,164,46,0.172395421192085,1
185,165,46,0.139445056632123,1
186,161,46,0.142916735482822,1
186,162,46,0.147043172766911,1
186,163,46,0.152765634520124,1
186,164,46,0.13442866511859,1
187,162,46,0.115023851922771,1
187,163,46,0.120587749948676,1
188,161,46,0.134670856373202,1
188,162,46,0.13859422515239,1
188,163,46,0.138276767945518,1
189,161,46,0.230622132274182,1
189,162,46,0.221843043767828,1
189,163,46,0.207906158914772,1
189,164,46,0.13462672845533,1
190,162,46,0.259853256477818,1
190,163,46,0.230571256211944,1
190,164,46,0.149780823097431,1
191,162,46,0.190482344169212,1
191,163,46,0.175717416072634,1
191,164,46,0.126396724561427,1
192,163,46,0.136561738242848,1
193,165,46,0.134343341722545,1
194,166,46,0.163463021440774,1
194,167,46,0.12252173514883,1
195,167,46,0.175667835465684,1
195,169,46,0.167721924916542,1
195,170,46,0.127106881373699,1
196,170,46,0.240919517932352,1
171,183,47,0.113944031055502,1
172,176,47,0.124913440032998,1
172,177,47,0.135768507415987,1
172,178,47,0.123083691876101,1
173,173,47,0.12878992510761,1
173,174,47,0.159545411549186,1
173,175,47,0.19085210243914,1
173,176,47,0.206794022326489,1
173,177,47,0.156629824546362,1
174,172,47,0.113888679784086,1
174,173,47,0.148684243749475,1
174,174,47,0.181006995552773,1
174,175,47,0.232389227502582,1
174,176,47,0.238399174338039,1
174,177,47,0.146154502215888,1
175,170,47,0.114092136925573,1
175,171,47,0.182388751717185,4
175,172,47,0.196692120871349,4
175,173,47,0.172549792355005,1
175,174,47,0.158046110482645,1
175,175,47,0.171701092488065,1
175,176,47,0.16075522546622,1
176,170,47,0.177970754555127,4
176,171,47,0.339277949966031,4
176,172,47,0.345333591042572,4
176,173,47,0.231473788134553,4
176,174,47,0.148443877909133,1
176,175,47,0.114377349072628,1
177,167,47,0.115320499406964,1
177,170,47,0.169172163558249,1
177,171,47,0.313923652366128,4
177,172,47,0.315027521594298,4
177,173,47,0.202671012110481,1
177,174,47,0.117511149630362,1
178,164,47,0.220838712613278,5
178,165,47,0.296977024464508,5
178,166,47,0.227362248586281,1
178,167,47,0.159666925255245,1
178,168,47,0.124905891061726,1
178,171,47,0.147348452694071,1
178,172,47,0.145969028349178,1
179,163,47,0.147898338133427,5
179,164,47,0.33142930455532,5
179,165,47,0.393727231195619,5
179,166,47,0.250656042111813,5
179,167,47,0.139425247943076,1
180,163,47,0.16336353047462,5
180,164,47,0.324427321613687,5
180,165,47,0.35544151047637,5
180,166,47,0.215932493683596,5
180,167,47,0.114663562253316,1
181,164,47,0.264413282646957,5
181,165,47,0.27684602614144,5
181,166,47,0.186645441142096,1
182,164,47,0.266662334350132,1
182,165,47,0.235836410471462,1
182,166,47,0.168463525961725,1
183,163,47,0.283632092017084,6
183,164,47,0.288004630475383,1
183,165,47,0.220419173529675,1
183,166,47,0.160275294612442,1
184,162,47,0.168305680623258,1
184,163,47,0.242163060794351,1
184,164,47,0.252283534367581,1
184,165,47,0.208996225655686,1
184,166,47,0.161108602115182,1
184,167,47,0.114787784638614,1
185,162,47,0.148635275539571,1
185,163,47,0.198789380545314,1
185,164,47,0.21561098523473,1
185,165,47,0.186707387458617,1
185,166,47,0.141574196283051,1
186,162,47,0.130822635777611,1
186,163,47,0.163174323341306,1
186,164,47,0.161971080915645,1
186,165,47,0.130402236982771,1
187,162,47,0.113942606054685,1
187,163,47,0.128307839087306,1
187,164,47,0.116271622679757,1
188,162,47,0.141428563554895,1
188,163,47,0.151087277978984,1
188,164,47,0.121001223946157,1
189,162,47,0.215761799784041,1
189,163,47,0.224807681418621,1
189,164,47,0.157091383488777,1
190,162,47,0.240330933710469,1
190,163,47,0.238691122852594,1
190,164,47,0.163516853496443,1
191,163,47,0.178248347069713,1
191,164,47,0.134466233321955,1
192,164,47,0.124382833323708,1
194,167,47,0.124744182911126,1
194,168,47,0.117183387665513,1
195,169,47,0.216427498926185,1
195,170,47,0.156038920281827,1
195,171,47,0.11434419719411,1
196,170,47,0.265146439679032,1
171,183,48,0.120614483435084,1
172,176,48,0.12444830092324,1
172,177,48,0.154496880967633,1
172,178,48,0.146567823114107,1
173,173,48,0.119728945530486,1
173,174,48,0.151797446568122,1
173,175,48,0.172862032410124,1
173,176,48,0.187803601723719,1
173,177,48,0.178425659568106,1
173,178,48,0.130561036247404,1
174,173,48,0.144736002228748,1
174,174,48,0.171568061006805,1
174,175,48,0.19450477994737,1
174,176,48,0.202876706856557,1
174,177,48,0.161815802934023,1
175,171,48,0.141038183992149,1
175,172,48,0.180549746943409,1
175,173,48,0.168293102930094,1
175,174,48,0.14782076391538,1
175,175,48,0.148723437160385,1
175,176,48,0.153490818613742,1
175,177,48,0.131655319106439,1
176,170,48,0.137197206169307,1
176,171,48,0.265945405839762,4
176,172,48,0.331190658137452,4
176,173,48,0.241580529881725,1
176,174,48,0.153119305590742,1
176,175,48,0.116086113482449,1
177,165,48,0.198731980099169,5
177,170,48,0.141544601018143,1
177,171,48,0.266323772998924,1
177,172,48,0.311597556403888,1
177,173,48,0.219577009823508,1
177,174,48,0.138479165169042,1
178,164,48,0.197165857093475,5
178,165,48,0.328143841513906,5
178,166,48,0.300255421386167,5
178,167,48,0.176365108386269,1
178,171,48,0.136955450658746,1
178,172,48,0.147755096109121,1
178,173,48,0.120834110213944,1
179,164,48,0.256094952256113,5
179,165,48,0.390233553158749,5
179,166,48,0.332406831562265,5
179,167,48,0.179769753314222,5
180,164,48,0.255464960572465,5
180,165,48,0.347778162279376,5
180,166,48,0.286974649306121,5
180,167,48,0.161312930744772,1
181,165,48,0.289358357698099,5
181,166,48,0.231145990839106,1
181,167,48,0.135318148273384,1
182,164,48,0.248779940209321,1
182,165,48,0.257054649087543,1
182,166,48,0.197684734043971,1
182,167,48,0.119284121515025,1
183,164,48,0.242950909593332,1
183,165,48,0.238717432371817,1
183,166,48,0.181414545786525,1
183,167,48,0.118150303715959,1
184,163,48,0.191057926730745,1
184,164,48,0.251529296744902,1
184,165,48,0.250242391461339,1
184,166,48,0.188925524887863,1
184,167,48,0.131788468356361,1
185,163,48,0.190494874754912,1
185,164,48,0.253820226984494,1
185,165,48,0.239315131888183,1
185,166,48,0.182155310674203,1
185,167,48,0.137422780265628,1
186,163,48,0.156931771620372,1
186,164,48,0.178297539040076,1
186,165,48,0.15126111630183,1
186,166,48,0.117604116212609,1
186,189,48,0.122946397169256,1
187,163,48,0.129360455393517,1
187,164,48,0.129608087560341,1
188,163,48,0.149954414106085,1
188,164,48,0.136103382608056,1
189,163,48,0.203665144498851,1
189,164,48,0.157188860610801,1
190,163,48,0.22092461307577,1
190,164,48,0.159956035545032,1
191,164,48,0.146836571202133,1
192,173,48,0.126433597929683,1
193,173,48,0.122658429235496,1
195,170,48,0.17845728045401,1
172,176,49,0.120441257509283,1
172,177,49,0.163682648219635,1
172,178,49,0.166718818556083,1
172,179,49,0.11880814768831,1
173,173,49,0.115193321028235,1
173,174,49,0.140852627687375,1
173,175,49,0.151746134761833,1
173,176,49,0.167288124047899,1
173,177,49,0.201230748474495,1
173,178,49,0.178846694313724,1
174,173,49,0.149973304199565,1
174,174,49,0.164810766015431,1
174,175,49,0.166303578028664,1
174,176,49,0.172771209217537,1
174,177,49,0.178896922648318,1
174,178,49,0.136375722640291,1
175,171,49,0.11723977530116,1
175,172,49,0.165978618957985,1
175,173,49,0.170186375503591,1
175,174,49,0.145396578434071,1
175,175,49,0.140863474181199,1
175,176,49,0.152516483137553,1
175,177,49,0.152049400844863,1
176,170,49,0.115386897378931,1
176,171,49,0.194833295631659,1
176,172,49,0.272400424004871,1
176,173,49,0.224605307748829,1
176,174,49,0.152624794976535,1
176,175,49,0.130501056667548,1
176,176,49,0.12734967324849,1
176,177,49,0.115751403166507,1
177,165,49,0.253518786315734,5
177,166,49,0.266064045990453,5
177,170,49,0.119021379628791,1
177,171,49,0.20111646576432,1
177,172,49,0.258425853179787,1
177,173,49,0.208862063595266,1
177,174,49,0.153371354082413,1
177,175,49,0.124618535525011,1
178,164,49,0.160375032892787,5
178,165,49,0.3136559170886,5
178,166,49,0.345160706645893,5
178,167,49,0.193073078093154,5
178,171,49,0.121936660433093,1
178,172,49,0.140153953319705,1
178,173,49,0.133462019936068,1
178,174,49,0.128206393161353,1
179,164,49,0.183146640168404,5
179,165,49,0.342510464216746,5
179,166,49,0.38259823390345,5
179,167,49,0.224967328617625,5
179,168,49,0.116491638095204,1
180,164,49,0.191990006810797,5
180,165,49,0.322713669804369,5
180,166,49,0.366251778660111,5
180,167,49,0.23677401390179,5
180,168,49,0.123228629769148,1
181,165,49,0.291539574651624,5
181,166,49,0.287358740022286,5
181,167,49,0.179320984048564,1
182,165,49,0.274546946310397,1
182,166,49,0.227402313485294,1
182,167,49,0.129978552442244,1
183,164,49,0.215069908891336,1
183,165,49,0.256208787445371,1
183,166,49,0.201543094521411,1
183,167,49,0.121011328497407,1
184,164,49,0.241501766200187,1
184,165,49,0.274960361423546,1
184,166,49,0.216075841699698,1
184,167,49,0.149528374192307,1
185,164,49,0.25866772645901,1
185,165,49,0.269523853759962,1
185,166,49,0.226166048726643,1
185,167,49,0.178913857781998,1
185,183,49,0.115987388012601,1
185,189,49,0.125227929469573,1
186,164,49,0.182067749673569,1
186,165,49,0.165751572753381,1
186,166,49,0.140306004439973,1
186,167,49,0.118094987775142,1
186,182,49,0.117519499428539,1
186,183,49,0.121445235357846,1
186,187,49,0.11915154933155,1
186,188,49,0.158690493496862,1
186,189,49,0.162431591716963,1
187,164,49,0.141451375344838,1
187,188,49,0.130617965618899,1
187,189,49,0.120083652965335,1
188,164,49,0.142312276045223,1
189,164,49,0.141273803755388,1
192,172,49,0.116788544670455,1
192,173,49,0.160398504187241,1
192,174,49,0.127095693350753,1
193,173,49,0.146891239415306,1
193,174,49,0.127130376221885,1
194,171,49,0.114824811106131,1
171,180,50,0.116122727759647,1
172,177,50,0.152435199206635,1
172,178,50,0.168353424039071,1
172,179,50,0.144364065238563,1
172,180,50,0.144574376516213,1
172,181,50,0.126783029328448,1
173,174,50,0.123131282192653,1
173,175,50,0.123115312762006,1
173,176,50,0.145631220717411,1
173,177,50,0.210430907057066,1
173,178,50,0.221220471509923,1
173,179,50,0.15417268739326,1
173,180,50,0.116135564543869,1
174,172,50,0.115285675213437,1
174,173,50,0.159180646670553,1
174,174,50,0.163209677493815,1
174,175,50,0.143862029206817,1
174,176,50,0.154224128745079,1
174,177,50,0.194050899521756,1
174,178,50,0.182000221122441,1
174,179,50,0.117879635998733,1
175,172,50,0.147206553232519,1
175,173,50,0.174531709400832,1
175,174,50,0.155596110110496,1
175,175,50,0.141247093822713,1
175,176,50,0.157633343097141,1
175,177,50,0.165480139539849,1
175,178,50,0.12793996511598,1
176,166,50,0.242512174217726,5
176,171,50,0.135728195202783,1
176,172,50,0.191080079016178,1
176,173,50,0.18654079190852,1
176,174,50,0.152117577123635,1
176,175,50,0.151277344823535,1
176,176,50,0.164566195833835,1
176,177,50,0.144057183657591,1
177,165,50,0.27390498933063,5
177,166,50,0.337642614317334,5
177,167,50,0.201902312496037,5
177,171,50,0.13984525810133,1
177,172,50,0.18347620399379,1
177,173,50,0.175632481313175,1
177,174,50,0.158656623229501,1
177,175,50,0.155259645041482,1
177,176,50,0.138459297595663,1
178,165,50,0.267922364824894,5
178,166,50,0.343264796054354,5
178,167,50,0.216464431178773,5
178,172,50,0.129289122914588,1
178,173,50,0.142616625599949,1
178,174,50,0.152593845372007,1
178,175,50,0.138999208029298,1
179,165,50,0.278069618991996,5
179,166,50,0.379171000946012,5
179,167,50,0.263426357700737,5
179,168,50,0.140307770969912,1
179,174,50,0.11737173508759,1
180,164,50,0.143432267803301,5
180,165,50,0.291363981575705,5
180,166,50,0.414144666459833,5
180,167,50,0.307993764667498,5
180,168,50,0.152347591098536,1
181,165,50,0.285820987487409,5
181,166,50,0.334210764828323,5
181,167,50,0.230455206971829,5
181,168,50,0.114352617653485,1
182,165,50,0.278439624576115,1
182,166,50,0.243327133362835,5
182,167,50,0.143296468758471,1
183,165,50,0.257841956150676,1
183,166,50,0.202811109711496,1
183,167,50,0.121110218843382,1
184,165,50,0.257931295458115,1
184,166,50,0.219138415770298,1
184,167,50,0.156263681774376,1
184,189,50,0.123580828731484,1
185,164,50,0.220008443542033,1
185,165,50,0.252398806334522,1
185,166,50,0.241091130427475,1
185,167,50,0.195477678645875,1
185,168,50,0.120232489001114,1
185,182,50,0.149275595534928,1
185,183,50,0.157598130267027,1
185,184,50,0.114184420449577,1
185,186,50,0.123217206208877,1
185,187,50,0.140432476206726,1
185,188,50,0.159629345275013,1
185,189,50,0.16642525661085,1
185,190,50,0.119540492116613,1
186,164,50,0.170123428153437,1
186,165,50,0.167484986144281,1
186,166,50,0.151697025229533,1
186,167,50,0.127462118767529,1
186,182,50,0.15647608933422,1
186,183,50,0.172878178493765,1
186,184,50,0.138241566892271,1
186,185,50,0.131975072802232,1
186,186,50,0.156471237265321,1
186,187,50,0.175027491916595,1
186,188,50,0.194121030760327,1
186,189,50,0.174890444523941,1
187,165,50,0.118013385868835,1
187,182,50,0.118269026304714,1
187,183,50,0.130639529061019,1
187,184,50,0.120494948242557,1
187,185,50,0.113813955567674,1
187,186,50,0.120450172597041,1
187,187,50,0.132189176230817,1
187,188,50,0.143163802360065,1
187,189,50,0.119906470012471,1
189,169,50,0.121282055098964,1
189,170,50,0.116508090377368,1
192,172,50,0.125234230093021,1
192,173,50,0.176228696944393,1
192,174,50,0.146410543065221,1
192,180,50,0.123068770586551,1
193,172,50,0.128835972654682,1
193,173,50,0.163675523215548,1
193,174,50,0.14242208354622,1
193,180,50,0.12160998193994,1
194,172,50,0.12161124206463,1
194,173,50,0.113878787216428,1
171,180,51,0.131886016139583,1
171,181,51,0.144873803340843,1
172,177,51,0.132549477677138,1
172,178,51,0.155631652692865,1
172,179,51,0.159720886856443,1
172,180,51,0.189441021877743,1
172,181,51,0.181474018961132,1
172,182,51,0.11770474953479,1
173,176,51,0.124850198261188,1
173,177,51,0.201710820650669,1
173,178,51,0.236420825682688,1
173,179,51,0.196673654745055,1
173,180,51,0.16108056139662,1
173,181,51,0.122834057642013,1
174,173,51,0.155415582527615,1
174,174,51,0.158781246028252,1
174,175,51,0.126841183494034,1
174,176,51,0.144333881130342,1
174,177,51,0.208902104940546,1
174,178,51,0.222127619964106,1
174,179,51,0.16254917194969,1
175,172,51,0.1257593958901,1
175,173,51,0.165373134933021,1
175,174,51,0.160268299153884,1
175,175,51,0.141575797936863,1
175,176,51,0.166946960009248,1
175,177,51,0.184016338187883,1
175,178,51,0.152352937795817,1
176,166,51,0.328375092059764,5
176,167,51,0.23609882260544,5
176,172,51,0.126788352471997,1
176,173,51,0.144270309606277,1
176,174,51,0.146929184478392,1
176,175,51,0.168973829353585,1
176,176,51,0.200871883805857,1
176,177,51,0.172042232972983,1
177,165,51,0.251682042700279,5
177,166,51,0.369677998807051,5
177,167,51,0.252096164425403,5
177,172,51,0.126736522483592,1
177,173,51,0.145496611136073,1
177,174,51,0.165650774555072,1
177,175,51,0.189657598448242,1
177,176,51,0.182481011687456,1
177,177,51,0.132088083610851,1
178,165,51,0.222190390661265,5
178,166,51,0.321654293576925,5
178,167,51,0.246657065851243,5
178,172,51,0.127520885330161,1
178,173,51,0.161533794094589,1
178,174,51,0.183021970262188,1
178,175,51,0.177636739074295,1
178,176,51,0.143140825693994,1
179,165,51,0.233487514496145,5
179,166,51,0.360672747361063,5
179,167,51,0.302218978297497,5
179,168,51,0.18303537233599,5
179,172,51,0.114213297325643,1
179,173,51,0.141443319968317,1
179,174,51,0.150829211508655,1
179,175,51,0.145013111891818,1
179,176,51,0.126024104512999,1
180,165,51,0.267408563703755,5
180,166,51,0.423237537790786,5
180,167,51,0.344212975110582,5
180,168,51,0.17962448566892,5
180,175,51,0.125259632793541,1
180,176,51,0.114807310682871,1
181,165,51,0.27932227714848,5
181,166,51,0.36397516908989,5
181,167,51,0.266889769191322,5
181,168,51,0.135034749763733,1
182,166,51,0.253315305620514,5
182,167,51,0.160334885555711,1
183,166,51,0.1936550083856,1
183,167,51,0.121364693369502,1
183,190,51,0.115592674563071,1
184,166,51,0.206451857254206,1
184,167,51,0.154706921377358,1
184,187,51,0.120457721568313,1
184,188,51,0.147903814376237,1
184,189,51,0.167887342780013,1
184,190,51,0.138311615692778,1
185,165,51,0.210610315837652,1
185,166,51,0.226756964768044,1
185,167,51,0.187456596359403,1
185,168,51,0.120511518293383,1
185,181,51,0.138634843564117,1
185,182,51,0.182831302797458,1
185,183,51,0.188849811414685,1
185,184,51,0.144162998800927,1
185,185,51,0.134835756054558,1
185,186,51,0.173670467171326,1
185,187,51,0.209148170784157,1
185,188,51,0.21746405158682,1
185,189,51,0.199071365831015,1
185,190,51,0.126467209105986,1
186,165,51,0.1671244962681,1
186,166,51,0.159341294903189,1
186,167,51,0.130244909826419,1
186,181,51,0.128026678182244,1
186,182,51,0.192666787984092,1
186,183,51,0.22792544188451,1
186,184,51,0.190246901058966,1
186,185,51,0.176507785120994,1
186,186,51,0.211491107665148,1
186,187,51,0.231763640366914,1
186,188,51,0.215431788437736,1
186,189,51,0.16676809296451,1
187,182,51,0.162910285999784,1
187,183,51,0.188960961478436,1
187,184,51,0.164759242225549,1
187,185,51,0.145667293258762,1
187,186,51,0.148956277583187,1
187,187,51,0.152142390980842,1
187,188,51,0.143494532095211,1
188,181,51,0.119509142098632,1
188,182,51,0.158600424023714,1
188,183,51,0.160635949364751,1
188,184,51,0.134651448097607,1
188,185,51,0.119297558919426,1
189,169,51,0.119778113947117,1
189,170,51,0.118350616434155,1
189,182,51,0.128689020917505,1
189,183,51,0.13065923175827,1
189,184,51,0.119799677389236,1
189,185,51,0.121278675138348,1
189,186,51,0.116503992027909,1
190,169,51,0.113883603954728,1
190,184,51,0.120519479454974,1
191,184,51,0.118179910757734,1
192,172,51,0.124073396162758,1
192,173,51,0.169750148600498,1
192,174,51,0.152768248984434,1
192,179,51,0.116984488171268,1
192,180,51,0.144670840827738,1
192,181,51,0.119583995860573,1
193,171,51,0.122708810669351,1
193,172,51,0.152357507219926,1
193,173,51,0.179521685403347,1
193,174,51,0.153416153281661,1
193,179,51,0.134111431672177,1
193,180,51,0.151120017667184,1
194,172,51,0.163753851153035,1
194,173,51,0.143892189761306,1
194,174,51,0.115714364922123,1
171,180,52,0.130860439518302,1
171,181,52,0.157091984108956,1
171,182,52,0.125750174603819,1
172,177,52,0.116625446849636,1
172,178,52,0.148204465994958,1
172,179,52,0.168582495864671,1
172,180,52,0.21439587172788,1
172,181,52,0.231023935397199,1
172,182,52,0.172689230451509,1
172,183,52,0.120436487878448,1
173,177,52,0.181350844716931,1
173,178,52,0.22984690827583,1
173,179,52,0.228396987609512,1
173,180,52,0.209433430038678,1
173,181,52,0.177643781640318,1
173,182,52,0.134075359130826,1
174,173,52,0.130578430678869,1
174,174,52,0.139586543903357,1
174,176,52,0.143374761365359,1
174,177,52,0.225725499713634,1
174,178,52,0.259807114715816,1
174,179,52,0.219855155850808,1
174,180,52,0.150921294825933,1
175,166,52,0.212231118833386,5
175,167,52,0.205301893371499,5
175,173,52,0.140611755441784,1
175,174,52,0.149481137181743,1
175,175,52,0.137852800760201,1
175,176,52,0.180476918802464,1
175,177,52,0.218189082581176,1
175,178,52,0.195311860368951,1
175,179,52,0.145010756518566,1
176,165,52,0.201527619719147,5
176,166,52,0.382156719187408,5
176,167,52,0.341964394482058,5
176,168,52,0.157342383839351,5
176,173,52,0.122930180424418,1
176,174,52,0.154560040301378,1
176,175,52,0.189746584449694,1
176,176,52,0.233117885771746,1
176,177,52,0.203201442166778,1
176,178,52,0.136795167508964,1
177,165,52,0.20494759812697,5
177,166,52,0.35855964780198,5
177,167,52,0.309384047283082,5
177,168,52,0.159799850744708,5
177,173,52,0.148408606194688,1
177,174,52,0.207712241034955,1
177,175,52,0.246021868792708,1
177,176,52,0.242575439543269,1
177,177,52,0.174756930191165,1
178,165,52,0.181522963617303,5
178,166,52,0.301161933889572,5
178,167,52,0.300193027548728,5
178,168,52,0.201354405570213,5
178,172,52,0.127258190551392,1
178,173,52,0.186979633275922,1
178,174,52,0.227015278552565,1
178,175,52,0.226645767596829,1
178,176,52,0.198116921481937,1
178,177,52,0.146701631868539,1
179,165,52,0.195458011279223,5
179,166,52,0.343412053990054,5
179,167,52,0.352277631802212,5
179,168,52,0.236851811880295,5
179,172,52,0.129245124542245,1
179,173,52,0.168991553537304,1
179,174,52,0.175236790383746,1
179,175,52,0.17551202752508,1
179,176,52,0.168187264233026,1
179,177,52,0.135322246622842,1
179,191,52,0.132768338959692,1
179,192,52,0.144559784978918,1
180,165,52,0.232465258951149,5
180,166,52,0.390440449145183,5
180,167,52,0.344094641158414,5
180,168,52,0.202322558191616,5
180,173,52,0.116897339360953,1
180,174,52,0.130192161242446,1
180,175,52,0.164354447778501,1
180,176,52,0.156527365809911,1
180,177,52,0.121152921760436,1
180,191,52,0.122104421892949,1
180,192,52,0.130966219331038,1
181,165,52,0.252799149126124,5
181,166,52,0.353305634457942,5
181,167,52,0.271509692502253,5
181,168,52,0.152451039091753,1
181,174,52,0.118041249934403,1
181,175,52,0.154576775228332,1
181,176,52,0.129981108022222,1
182,166,52,0.24476299245084,5
182,167,52,0.169374902310894,1
183,167,52,0.123129044588064,1
183,185,52,0.116364718807533,1
183,189,52,0.12889204231494,1
183,190,52,0.136252772156549,1
184,167,52,0.145454767930255,1
184,180,52,0.120986067119281,1
184,181,52,0.117066337391767,1
184,186,52,0.12020294084367,1
184,187,52,0.149913642595097,1
184,188,52,0.178781438697784,1
184,189,52,0.188553470129015,1
184,190,52,0.143370462809175,1
185,166,52,0.192562774701294,1
185,167,52,0.163883267136353,1
185,168,52,0.114697562066205,1
185,179,52,0.119517880533396,1
185,180,52,0.153555591378166,1
185,181,52,0.175521990753935,1
185,182,52,0.187664552263801,1
185,183,52,0.184677091046199,1
185,184,52,0.162144306841445,1
185,185,52,0.159880722485307,1
185,186,52,0.207821530353836,1
185,187,52,0.260909476505105,1
185,188,52,0.255005309482384,1
185,189,52,0.206200750911836,1
186,166,52,0.162638876339984,1
186,167,52,0.127480172703504,1
186,181,52,0.146052102363768,1
186,182,52,0.201783884328939,1
186,183,52,0.247666531719482,1
186,184,52,0.22701897648857,1
186,185,52,0.205955509448862,1
186,186,52,0.246821565119146,1
186,187,52,0.274032627007143,1
186,188,52,0.226122662751345,1
187,181,52,0.130539355036622,1
187,182,52,0.20461294669536,1
187,183,52,0.24244054731714,1
187,184,52,0.207169233285494,1
187,185,52,0.172853529512686,1
187,186,52,0.182862841245299,1
187,187,52,0.180350470589443,1
188,181,52,0.148249865814386,1
188,182,52,0.212059718321855,1
188,183,52,0.200722670910358,1
188,184,52,0.155671588046349,1
188,185,52,0.141484715653217,1
188,186,52,0.139870590140653,1
189,181,52,0.118264433326873,1
189,182,52,0.156254943339612,1
189,183,52,0.14932397490152,1
189,184,52,0.138389119249627,1
189,185,52,0.147419149222223,1
190,183,52,0.124983323957378,1
190,184,52,0.134317173525718,1
191,174,52,0.114541012183027,1
192,172,52,0.116786507272592,1
192,173,52,0.150077659011484,1
192,174,52,0.143610746211453,1
192,179,52,0.117514847566367,1
192,180,52,0.145911663233632,1
193,172,52,0.17391510801412,1
193,173,52,0.187305357842908,1
193,174,52,0.155279559722326,1
171,180,53,0.118937610779092,1
171,181,53,0.139684409661967,1
171,182,53,0.125831211220546,1
172,178,53,0.159956753933874,1
172,179,53,0.18079319832271,1
172,180,53,0.209547500765261,1
172,181,53,0.240095160847968,1
172,182,53,0.218918400354851,1
172,183,53,0.167970428571469,1
173,177,53,0.165579383191812,1
173,178,53,0.217328122996461,1
173,179,53,0.236159308590546,1
173,180,53,0.235420168910411,1
173,181,53,0.233048826228004,1
173,182,53,0.21085868994705,1
173,183,53,0.157983363339218,1
174,174,53,0.11786856574445,1
174,176,53,0.149429589838128,1
174,177,53,0.230555663641017,1
174,178,53,0.275723525910849,1
174,179,53,0.256982551112306,1
174,180,53,0.192594430917798,1
174,181,53,0.147889317053873,1
174,182,53,0.126092080585045,1
175,166,53,0.223909695366387,5
175,167,53,0.250774446725179,5
175,173,53,0.132789796410015,1
175,174,53,0.149116902262091,1
175,175,53,0.14207241661013,1
175,176,53,0.187406368024809,1
175,177,53,0.244988119026243,1
175,178,53,0.246891873010711,1
175,179,53,0.206572075504976,1
175,180,53,0.136293331683944,1
176,165,53,0.162999283778102,5
176,166,53,0.363823836358465,5
176,167,53,0.409121880107921,5
176,168,53,0.198225221544053,5
176,173,53,0.163301148414047,1
176,174,53,0.209019755834472,1
176,175,53,0.217145322478392,1
176,176,53,0.24211515250241,1
176,177,53,0.222687233094992,1
176,178,53,0.172685190986382,1
176,179,53,0.135262855886299,1
177,165,53,0.160115376545513,5
177,166,53,0.321615806777992,5
177,167,53,0.361048358733521,5
177,168,53,0.198651449887691,5
177,172,53,0.12548074345755,1
177,173,53,0.207768864207927,1
177,174,53,0.289829008381266,7
177,175,53,0.301969567823868,7
177,176,53,0.290104092423339,7
177,177,53,0.224071085541598,1
177,178,53,0.158252653163092,1
177,179,53,0.126129954986933,1
178,166,53,0.28222786559185,5
178,167,53,0.348559486694449,5
178,168,53,0.23831647718317,5
178,172,53,0.133327963867444,1
178,173,53,0.208150057814992,1
178,174,53,0.264364408651983,1
178,175,53,0.265545463461613,1
178,176,53,0.25671950302755,7
178,177,53,0.208963415306289,1
178,178,53,0.158895976259345,1
178,179,53,0.135705654280764,1
179,165,53,0.169407700883425,5
179,166,53,0.321178861486058,5
179,167,53,0.384756415306572,5
179,168,53,0.26881429756787,5
179,172,53,0.13189188101898,1
179,173,53,0.179773015506176,1
179,174,53,0.192255386715073,1
179,175,53,0.200666636580699,1
179,176,53,0.20884095945093,1
179,177,53,0.174414576689022,1
179,178,53,0.137012026724253,1
179,179,53,0.123287737860901,1
179,191,53,0.142018631661926,1
179,192,53,0.16295427259526,1
180,165,53,0.206484785372265,5
180,166,53,0.343625827666384,5
180,167,53,0.331208276329375,5
180,168,53,0.21733681432376,5
180,172,53,0.12087022986276,1
180,173,53,0.158727425749449,1
180,174,53,0.171934827952703,1
180,175,53,0.202695060471382,1
180,176,53,0.197532364948315,1
180,177,53,0.154972725248819,1
180,178,53,0.141370774472163,1
180,179,53,0.139575296996079,1
180,180,53,0.121516379406915,1
180,181,53,0.124396706472161,1
180,191,53,0.12698587407289,1
180,192,53,0.144922736220148,1
181,165,53,0.234965157905636,5
181,166,53,0.324683892422001,5
181,167,53,0.267026663484714,5
181,172,53,0.115173677215316,1
181,173,53,0.13958924080573,1
181,174,53,0.157152764515718,1
181,175,53,0.194013401979588,1
181,176,53,0.173766695945526,1
181,177,53,0.140871011375605,1
181,178,53,0.155054727568579,1
181,179,53,0.159019009181151,1
181,180,53,0.129588938375804,1
181,181,53,0.140257625073382,1
181,182,53,0.140815824980316,1
182,166,53,0.235592417356312,5
182,175,53,0.139576557120769,1
182,176,53,0.134090692610695,1
182,177,53,0.114912548759759,1
182,178,53,0.116950252821054,1
182,182,53,0.118432889621839,1
183,184,53,0.118043146009871,1
183,185,53,0.121192833560187,1
183,188,53,0.114646120714387,1
183,189,53,0.138366684319404,1
183,190,53,0.13958451828236,1
184,179,53,0.132854204091585,1
184,180,53,0.14400408176763,1
184,181,53,0.12574648844468,1
184,184,53,0.118077134045893,1
184,185,53,0.129298132217276,1
184,186,53,0.136244198597912,1
184,187,53,0.165003282448164,1
184,188,53,0.188087435977422,1
184,189,53,0.180226342419076,1
185,167,53,0.130947635436082,1
185,179,53,0.152788599409329,1
185,180,53,0.193325715428138,1
185,181,53,0.195272254767723,1
185,182,53,0.171103593178425,1
185,183,53,0.162549325048952,1
185,184,53,0.168002520532024,1
185,185,53,0.171568649850118,1
185,186,53,0.209243940260574,1
185,187,53,0.262392278182017,1
185,188,53,0.251473285968976,1
186,180,53,0.133644785123538,1
186,181,53,0.161227736894256,1
186,182,53,0.193214117843469,1
186,183,53,0.234489584492373,1
186,184,53,0.238406617317514,1
186,185,53,0.215496702524555,1
186,186,53,0.250564818505772,1
186,187,53,0.279730416225545,1
187,181,53,0.149679565601338,1
187,182,53,0.236747845704963,1
187,183,53,0.274393964817696,1
187,184,53,0.23853091036401,1
187,185,53,0.198077892947155,1
187,186,53,0.219543799060658,1
188,181,53,0.168547294811424,1
188,182,53,0.249263757428965,1
188,183,53,0.224002308642646,1
188,184,53,0.171316836895773,1
188,185,53,0.15909295612439,1
189,181,53,0.129699652695503,1
189,183,53,0.151847086059403,1
171,181,54,0.115462139777459,1
171,182,54,0.121831775662192,1
172,178,54,0.171391914418172,1
172,179,54,0.194514236770975,1
172,180,54,0.19163044730705,1
172,181,54,0.241541619115606,1
172,182,54,0.276684895057287,1
172,183,54,0.221637537451612,1
172,184,54,0.125262918539228,1
173,177,54,0.146301277300071,1
173,178,54,0.20143707917135,1
173,179,54,0.227807814544317,1
173,180,54,0.239480219999399,1
173,181,54,0.303315451653656,8
173,182,54,0.334734505624584,8
173,183,54,0.245523283382776,1
173,184,54,0.125179809194039,1
174,176,54,0.140824410315819,1
174,177,54,0.209213508838161,1
174,178,54,0.257814044977642,1
174,179,54,0.253505619779256,1
174,180,54,0.209132342675906,1
174,181,54,0.196503396589551,1
174,182,54,0.190039734204608,1
174,183,54,0.153406543358794,1
174,184,54,0.115394505234534,1
175,167,54,0.244756208975875,5
175,174,54,0.143706857216991,1
175,175,54,0.135199672998821,1
175,176,54,0.171470560331049,1
175,177,54,0.240517738363066,1
175,178,54,0.277337357001757,1
175,179,54,0.249102485022417,1
175,180,54,0.164532290235876,1
176,166,54,0.304208962496711,5
176,167,54,0.419745367192797,5
176,168,54,0.249209678059105,5
176,173,54,0.212888762599009,1
176,174,54,0.262896257396696,7
176,175,54,0.224244794318915,7
176,176,54,0.223352743807276,7
176,177,54,0.218374426902357,1
176,178,54,0.198440361336868,1
176,179,54,0.167440398928626,1
176,180,54,0.116749233490883,1
177,166,54,0.288859678073237,5
177,167,54,0.418943786567759,5
177,168,54,0.280758136236485,5
177,173,54,0.267621018371063,7
177,174,54,0.351013220333202,7
177,175,54,0.324325145522026,7
177,176,54,0.312979901411613,7
177,177,54,0.249170084234743,7
177,178,54,0.187489677576724,1
177,179,54,0.157793532031993,1
177,180,54,0.119101827402205,1
178,166,54,0.266341202760987,5
178,167,54,0.391492900575267,5
178,168,54,0.284789357556871,5
178,173,54,0.205533567884542,1
178,174,54,0.270683710210326,7
178,175,54,0.289008678985143,7
178,176,54,0.310226328757911,7
178,177,54,0.25278143671927,7
178,178,54,0.198032528458326,1
178,179,54,0.176547850020007,1
178,180,54,0.132057004460794,1
179,166,54,0.291950021994475,5
179,167,54,0.39474925120329,5
179,168,54,0.276979222498827,5
179,172,54,0.12122874122541,1
179,173,54,0.169637220229943,1
179,174,54,0.198748232174606,1
179,175,54,0.221365939361952,1
179,176,54,0.238549659135094,7
179,177,54,0.1999813407331,1
179,178,54,0.163653524029377,1
179,179,54,0.148400350611441,1
179,180,54,0.12274098506797,1
179,191,54,0.135370202022248,1
179,192,54,0.155601986766759,1
180,165,54,0.184616993697681,5
180,166,54,0.310218344042587,5
180,167,54,0.344967448270586,5
180,168,54,0.231940693774249,5
180,172,54,0.128390500911577,1
180,173,54,0.191376231871988,1
180,174,54,0.205725625019491,1
180,175,54,0.218633541513783,1
180,176,54,0.22094117134973,1
180,177,54,0.191180594569696,1
180,178,54,0.173318338870188,1
180,179,54,0.161254246620204,1
180,180,54,0.142967623321926,1
180,181,54,0.166721056160672,1
180,182,54,0.139055890086601,1
180,191,54,0.119459055086433,1
181,166,54,0.289604541310373,5
181,167,54,0.275007775087104,5
181,172,54,0.127440131358224,1
181,173,54,0.174734012409425,1
181,174,54,0.18210419907464,1
181,175,54,0.211998431509844,1
181,176,54,0.222953767132161,1
181,177,54,0.20064110433465,1
181,178,54,0.196577567293249,1
181,179,54,0.188722267953102,1
181,180,54,0.158434299548268,1
181,181,54,0.187295547713314,1
181,182,54,0.176422084865229,1
182,173,54,0.119636285146762,1
182,174,54,0.131825907014198,1
182,175,54,0.174261606973186,1
182,176,54,0.188018435318012,1
182,177,54,0.156606247260112,1
182,178,54,0.141014606705898,1
182,179,54,0.133667432037354,1
182,180,54,0.114153824151036,1
182,181,54,0.127937998379315,1
182,182,54,0.138573603859571,1
182,183,54,0.115871103235162,1
183,175,54,0.126362147682091,1
183,176,54,0.130477361612636,1
183,184,54,0.122313461269043,1
183,185,54,0.116200101770967,1
183,188,54,0.120687111369302,1
184,178,54,0.12030351528152,1
184,179,54,0.147957929076696,1
184,180,54,0.150740885011714,1
184,181,54,0.123370694106828,1
184,184,54,0.131483211982933,1
184,185,54,0.144845220886432,1
184,186,54,0.149745044977737,1
184,187,54,0.167983559777347,1
184,188,54,0.179473058722564,1
185,178,54,0.126180418858852,1
185,179,54,0.170904634799848,1
185,180,54,0.207222346952321,1
185,181,54,0.1865240452047,1
185,182,54,0.14505144559149,1
185,183,54,0.140885779565893,1
185,184,54,0.165756483706611,1
185,185,54,0.175530069684189,1
185,186,54,0.19320832362527,1
186,179,54,0.118053603867108,1
186,180,54,0.153466263847593,1
186,181,54,0.167602943236729,1
186,182,54,0.178039284139887,1
186,183,54,0.207111385318431,1
186,184,54,0.227523732976422,1
186,185,54,0.212107179092878,1
187,181,54,0.16468674383686,1
187,182,54,0.243806381158371,1
187,183,54,0.27064107795447,1
188,181,54,0.169042158731618,1
172,179,55,0.203487949769122,1
172,180,55,0.172901320035964,1
172,181,55,0.222921498518612,8
172,182,55,0.289638270255339,8
172,183,55,0.238020100566901,1
172,184,55,0.129551440833636,1
173,178,55,0.209088674055818,1
173,179,55,0.247628869301186,1
173,180,55,0.242295150126309,8
173,181,55,0.339290880965183,8
173,182,55,0.41604757250993,8
173,183,55,0.308980972258508,8
173,184,55,0.156379483700299,1
174,177,55,0.192446654799982,1
174,178,55,0.248041978215812,1
174,179,55,0.258587337569928,1
174,180,55,0.225635618670347,1
174,181,55,0.240313503948406,8
174,182,55,0.250513047401698,8
174,183,55,0.203669101525914,1
174,184,55,0.151426522388435,1
174,185,55,0.116085677738397,1
175,167,55,0.197129101493881,5
175,176,55,0.152314309674488,1
175,177,55,0.221298552133219,1
175,178,55,0.287125440301699,1
175,179,55,0.267948745005313,1
175,180,55,0.185885715499741,1
175,181,55,0.140054415246086,1
175,182,55,0.131988027355117,1
175,183,55,0.144822456203954,1
175,184,55,0.144661996401178,1
175,185,55,0.116335382633682,1
176,166,55,0.233288768101161,5
176,167,55,0.365131468926644,5
176,168,55,0.276100409184863,5
176,174,55,0.276101916623744,7
176,175,55,0.214374814691009,7
176,176,55,0.199075228643148,7
176,177,55,0.210226625534941,1
176,178,55,0.224917488919618,1
176,179,55,0.194943008917726,1
176,180,55,0.138138024684123,1
176,181,55,0.116563747847307,1
176,182,55,0.119469430505607,1
176,183,55,0.119629584109861,1
177,166,55,0.260046891712845,5
177,167,55,0.443034167327035,5
177,168,55,0.36771967082434,5
177,169,55,0.200073459380976,5
177,173,55,0.287266668481874,7
177,174,55,0.348576068522142,7
177,175,55,0.313994643315936,7
177,176,55,0.30995463645332,7
177,177,55,0.257125993343338,7
177,178,55,0.211411849355226,1
177,179,55,0.182339807061013,1
177,180,55,0.142671187821326,1
177,181,55,0.12964690411153,1
178,166,55,0.242926979001094,5
178,167,55,0.396817834207915,5
178,168,55,0.326484127752053,5
178,169,55,0.191196010487629,5
178,174,55,0.255669124325928,7
178,175,55,0.306973110776313,7
178,176,55,0.340626778012383,7
178,177,55,0.270721466843552,7
178,178,55,0.22077090141736,1
178,179,55,0.200952861538253,1
178,180,55,0.151854611476942,1
178,181,55,0.125976525973313,1
179,166,55,0.255104376481353,5
179,167,55,0.375156149469725,5
179,168,55,0.271474974300522,5
179,173,55,0.153877994868866,1
179,174,55,0.200713861814397,1
179,175,55,0.237646703245299,7
179,176,55,0.249136802810695,7
179,177,55,0.210775639486193,1
179,178,55,0.187244165245827,1
179,179,55,0.166523381460518,1
179,180,55,0.132244209526844,1
179,181,55,0.132502252443441,1
180,166,55,0.291550126723792,5
180,167,55,0.382600447954307,5
180,168,55,0.252974977739367,5
180,173,55,0.200735766785638,1
180,174,55,0.217602995054941,1
180,175,55,0.21304089615734,1
180,176,55,0.226375888929642,1
180,177,55,0.227482513944516,1
180,178,55,0.207761892303102,1
180,179,55,0.169374749211633,1
180,180,55,0.149439270422193,1
180,181,55,0.189996725089031,1
180,182,55,0.148613123254138,1
181,167,55,0.305391925158674,5
181,173,55,0.189557047564125,1
181,174,55,0.195284820684021,1
181,175,55,0.217353773011172,1
181,176,55,0.267176865636979,1
181,177,55,0.2736431189325,1
181,178,55,0.236670848553363,1
181,179,55,0.192027056832047,1
181,180,55,0.168007360824057,1
181,181,55,0.209874567895,1
181,182,55,0.177876822269847,1
182,175,55,0.215011613403355,1
182,176,55,0.241029254772151,1
182,177,55,0.203393334425598,1
182,179,55,0.142826253819355,1
182,180,55,0.126383664016746,1
182,181,55,0.142276733462854,1
182,182,55,0.141323572792198,1
182,183,55,0.115294060342213,1
183,184,55,0.116225539802086,1
185,179,55,0.168644383296861,1
185,180,55,0.184896482287734,1
172,181,56,0.187739453133207,8
172,182,56,0.252740476778422,8
173,180,56,0.253097009627541,8
173,181,56,0.317637557802037,8
173,182,56,0.412734598708935,8
173,183,56,0.321127278811844,8
173,184,56,0.188663124530751,1
174,181,56,0.263437168863963,8
174,182,56,0.304608480907674,8
174,183,56,0.255233191844492,1
174,184,56,0.186582752883,1
175,180,56,0.194200618822504,1
176,167,56,0.292946886615818,5
176,168,56,0.28148735979523,5
176,175,56,0.21390647227363,7
176,176,56,0.193291821607045,7
176,179,56,0.212360028411454,1
176,180,56,0.160001458918192,1
177,166,56,0.232162452165902,5
177,167,56,0.431958118825566,5
177,168,56,0.445001280851974,5
177,169,56,0.258017549226594,5
177,174,56,0.309359622062461,7
177,175,56,0.306816666884931,7
177,176,56,0.303219375978716,7
177,177,56,0.273570196576625,7
177,178,56,0.242002283016185,1
177,179,56,0.203457424131779,1
177,180,56,0.16376699413578,1
178,166,56,0.214772331034709,5
178,167,56,0.381596823411732,5
178,168,56,0.386174844632514,5
178,169,56,0.240759046352709,5
178,174,56,0.24969603908186,7
178,175,56,0.330010875229378,7
178,176,56,0.348919057975063,7
178,177,56,0.284598760753339,7
178,178,56,0.236620796871763,1
178,179,56,0.204285926673085,1
178,180,56,0.159853235279459,1
179,166,56,0.214726424810032,5
179,167,56,0.342148184256892,5
179,168,56,0.280356497989595,5
179,169,56,0.169644604325087,5
179,175,56,0.260067760319856,7
179,176,56,0.259726820041664,7
179,178,56,0.212211993202581,1
179,179,56,0.172951901676545,1
180,166,56,0.269952484584318,5
180,167,56,0.408922898175613,5
180,168,56,0.277878480452616,5
180,178,56,0.228864788291044,1
180,179,56,0.16219912815388,1
180,180,56,0.140937515339368,1
180,181,56,0.178620295836765,1
181,166,56,0.253329791166012,5
181,167,56,0.346252327933153,5
181,168,56,0.233640189790324,5
181,179,56,0.174803272159893,1
181,180,56,0.156570798892673,1
181,181,56,0.194190667370515,1
181,182,56,0.152134959778233,1
182,167,56,0.233444104967115,5
172,182,57,0.188083196305569,8
173,181,57,0.261218737013061,8
173,182,57,0.338751100077077,8
173,183,57,0.286173539755733,8
174,181,57,0.266885293982144,8
174,182,57,0.337011986682908,8
174,183,57,0.291060491732216,8
175,182,57,0.212251704795606,8
176,167,57,0.236118042451175,5
176,168,57,0.278706299935679,5
176,169,57,0.195190205340498,5
176,176,57,0.211053290885111,7
176,177,57,0.232191800116619,7
177,166,57,0.206467379163935,5
177,167,57,0.392670021911566,5
177,168,57,0.495267395632705,5
177,169,57,0.327336372455738,5
177,170,57,0.18967558172302,5
177,175,57,0.296327648058998,7
177,176,57,0.294889527812671,7
177,177,57,0.300848881230681,7
177,178,57,0.283835784695896,7
178,166,57,0.195244744008142,5
178,167,57,0.365907234660844,5
178,168,57,0.461449653095917,5
178,169,57,0.318377757400135,5
178,170,57,0.184135802719212,5
178,174,57,0.262920305757597,7
178,175,57,0.329332763270196,7
178,176,57,0.32989030367262,7
178,177,57,0.302215209700294,7
178,178,57,0.2586506971104,7
179,166,57,0.181476609871708,5
179,167,57,0.309119256222119,5
179,168,57,0.315289603976021,5
179,169,57,0.212459166071621,5
179,175,57,0.272273869800054,7
179,176,57,0.276609216914708,7
179,177,57,0.265261334786253,7
180,166,57,0.230438507375474,5
180,167,57,0.384268546844935,5
180,168,57,0.301762930928491,5
180,169,57,0.159136671851942,5
181,166,57,0.241732569225126,5
181,167,57,0.360821701165505,5
181,168,57,0.266171474564466,5
182,167,57,0.249731110589579,5
173,182,58,0.244220102470042,8
174,182,58,0.316273820243001,8
176,167,58,0.196141045968501,5
176,168,58,0.271449465608206,5
176,169,58,0.225986687053521,5
176,177,58,0.253314080826423,7
177,166,58,0.178104304218502,5
177,167,58,0.32749992957434,5
177,168,58,0.494097905705741,5
177,169,58,0.382842580324587,5
177,170,58,0.224456613035446,5
177,176,58,0.282757000192858,7
177,177,58,0.312705688857643,7
177,178,58,0.304343972491502,7
178,166,58,0.176862233464785,5
178,167,58,0.324740209396451,5
178,168,58,0.48410316195669,5
178,169,58,0.375274318545766,5
178,170,58,0.223540655485302,5
178,175,58,0.287509389695468,7
178,176,58,0.297672707508148,7
178,177,58,0.307141967484732,7
178,178,58,0.265358423271691,7
179,167,58,0.264523843867395,5
179,168,58,0.335525722607315,5
179,169,58,0.260782992961485,5
179,175,58,0.265122956607712,7
179,176,58,0.300689964197384,7
179,177,58,0.296622941203571,7
180,166,58,0.180591213289506,5
180,167,58,0.311754306493792,5
180,168,58,0.311024235000677,5
180,169,58,0.194367320364397,5
180,176,58,0.264552131900148,7
181,166,58,0.215442905799485,5
181,167,58,0.326120787874237,5
181,168,58,0.28520988589724,5
182,167,58,0.243590888059567,5
176,168,59,0.265205206241664,5
176,169,59,0.257594594851776,5
177,167,59,0.2600501185742,5
177,168,59,0.445222214862989,5
177,169,59,0.414331447558698,5
177,170,59,0.249045461435992,5
177,177,59,0.294911998073493,7
178,167,59,0.267404276924437,5
178,168,59,0.429912524263878,5
178,169,59,0.384674259887551,5
178,170,59,0.246453137635105,5
178,176,59,0.264159137873092,7
178,177,59,0.294818230664341,7
179,167,59,0.226993797548509,5
179,168,59,0.325559973502993,5
179,169,59,0.298292217780826,5
179,170,59,0.220109041533616,5
179,175,59,0.252770319357522,7
179,176,59,0.317567838753785,7
179,177,59,0.308182830478417,7
180,167,59,0.244210468993443,5
180,168,59,0.305270246576489,5
180,169,59,0.242116659941291,5
180,176,59,0.290047492804099,7
181,167,59,0.268050190931267,5
175,169,60,0.164355919886784,5
176,168,60,0.290964039197556,5
176,169,60,0.338847434843074,5
176,170,60,0.211663544540909,5
177,167,60,0.206721877243787,5
177,168,60,0.391803221001186,5
177,169,60,0.450461695554063,5
177,170,60,0.280980907438636,5
178,167,60,0.204884050156637,5
178,168,60,0.339627134050604,5
178,169,60,0.366872278189555,5
178,170,60,0.258980237382054,5
178,176,60,0.239487757193805,7
179,168,60,0.282137843226168,5
179,169,60,0.318247787904103,5
179,170,60,0.264183822184771,5
179,175,60,0.247233284363553,7
179,176,60,0.319088797477376,7
179,177,60,0.294136609199014,7
180,169,60,0.289003991792372,5
180,176,60,0.297628426491015,7
175,169,61,0.190008584393353,5
176,168,61,0.2854911174635,5
176,169,61,0.379115319922341,5
176,170,61,0.237498149854311,5
177,167,61,0.16581887754405,5
177,168,61,0.316047115567519,5
177,169,61,0.421244091192892,5
177,170,61,0.285234711531314,5
178,168,61,0.25209809583147,5
178,169,61,0.318259211464374,5
178,170,61,0.258259610935678,5
179,168,61,0.228079601063837,5
179,169,61,0.302171729510066,5
179,170,61,0.284415889574072,5
179,176,61,0.304690895417753,7
180,169,61,0.294390118022101,5
175,169,62,0.206685816479303,5
176,168,62,0.246166253173041,5
176,169,62,0.361784813288149,5
176,170,62,0.251366116486021,5
177,168,62,0.235725613713699,5
177,169,62,0.341792664218272,5
177,170,62,0.265443570014742,5
178,169,62,0.258070074050109,5
179,169,62,0.258003275664689,5
176,169,63,0.298031336639461,5
177,169,63,0.253873128667728,5
