x,y,z,signal,mito.p
649,864,59,0.151310060958002,1
650,863,59,0.141986987222289,1
650,864,59,0.169409337867835,1
651,863,59,0.181323534164077,1
651,864,59,0.181297990141161,1
652,863,59,0.172810920810561,1
652,864,59,0.151860864992926,1
648,864,60,0.13023555899461,1
648,868,60,0.125192222011076,1
649,863,60,0.121047825005943,1
649,864,60,0.13934688467499,1
649,868,60,0.119867830114276,1
650,863,60,0.147506769107188,1
650,864,60,0.14928103644714,1
651,863,60,0.191739442204275,1
651,864,60,0.168250376459307,1
652,863,60,0.182040168252791,1
652,864,60,0.149922934542576,1
652,870,60,0.119452142065939,1
653,871,60,0.119372671772425,1
653,872,60,0.118820277860556,1
635,868,61,0.122440568986574,1
635,869,61,0.124840541230856,1
646,864,61,0.121625857155657,1
646,865,61,0.129053903564801,1
647,864,61,0.116843448420953,1
647,865,61,0.118421725152626,1
648,864,61,0.117764210932531,1
648,867,61,0.124999976446267,1
648,868,61,0.146092096601583,1
648,869,61,0.128695215549157,1
649,863,61,0.115735787041848,1
649,864,61,0.117678133817045,1
649,867,61,0.120748233305185,1
649,868,61,0.144811550825799,1
649,869,61,0.128459160041865,1
650,863,61,0.139574496169174,1
650,864,61,0.12654649096964,1
651,863,61,0.171034910494403,1
651,864,61,0.142773646557777,1
652,863,61,0.162587552756828,1
652,864,61,0.132480877431181,1
634,868,62,0.129160825733565,1
634,869,62,0.126934173630014,1
635,867,62,0.120007303541379,1
635,868,62,0.148120638260928,1
635,869,62,0.146427266215308,1
635,870,62,0.128777100100254,1
636,868,62,0.135491621513376,1
636,869,62,0.13645907929967,1
637,881,62,0.115990909295612,1
646,864,62,0.141222786370755,1
646,865,62,0.149785557397667,1
647,864,62,0.120404384141027,1
647,865,62,0.122021430316424,1
648,867,62,0.130760324378236,1
648,868,62,0.147220567703367,1
648,869,62,0.134591421410286,1
649,867,62,0.141433922029043,1
649,868,62,0.155126130708706,1
649,869,62,0.132007883151629,1
650,863,62,0.11546075010724,1
651,863,62,0.129996559270754,1
652,863,62,0.12417736233809,1
633,868,63,0.117092729349053,1
633,869,63,0.123430791455347,1
634,867,63,0.12364530707425,1
634,868,63,0.151580516691635,1
634,869,63,0.150177303076899,1
634,870,63,0.138611654914453,1
635,867,63,0.140618374040621,1
635,868,63,0.171007953247537,1
635,869,63,0.168821872448248,1
635,870,63,0.152980421006952,1
635,871,63,0.116627837553487,1
636,867,63,0.133156045173798,1
636,868,63,0.15213965874787,1
636,869,63,0.149107574984014,1
636,870,63,0.133922271646328,1
636,881,63,0.114509273528459,1
637,868,63,0.114701966614186,1
646,864,63,0.138952406762785,1
646,865,63,0.147938956545154,1
647,864,63,0.116074489715451,1
647,865,63,0.119567084280625,1
648,867,63,0.125344214247012,1
648,868,63,0.131678649078498,1
648,869,63,0.124797225916756,1
649,866,63,0.116158482325609,1
649,867,63,0.147781181867884,1
649,868,63,0.143133618251844,1
649,869,63,0.119980204972118,1
630,878,64,0.123314553785372,1
630,879,64,0.137551254099645,1
630,880,64,0.13102756502738,1
633,868,64,0.130878305024416,1
633,869,64,0.138984675376334,1
633,870,64,0.135314827197099,1
634,867,64,0.137502933617385,1
634,868,64,0.167725976158535,1
634,869,64,0.172168104119557,1
634,870,64,0.161482988693549,1
634,871,64,0.126829583280769,1
635,867,64,0.159212656193044,1
635,868,64,0.188150442211907,1
635,869,64,0.191520651582919,1
635,870,64,0.17564899247967,1
635,871,64,0.128271766545955,1
636,866,64,0.114629797977752,1
636,867,64,0.156207188146933,1
636,868,64,0.167591119263006,1
636,869,64,0.15952780513413,1
636,870,64,0.143456009965678,1
637,867,64,0.122141577905996,1
637,868,64,0.122111900203024,1
646,863,64,0.116596299105646,1
646,864,64,0.121109488677674,1
646,865,64,0.124105311470319,1
649,866,64,0.113794806383137,1
649,867,64,0.134993177425839,1
649,868,64,0.118878761778397,1
629,878,65,0.125012471701368,1
629,879,65,0.144908615757504,1
629,880,65,0.156188957557964,1
629,881,65,0.127348778206655,1
630,877,65,0.121812379163464,1
630,878,65,0.134210639993541,1
630,879,65,0.149970795727051,1
630,880,65,0.155307176473703,1
630,881,65,0.124386366383585,1
631,877,65,0.114844796448173,1
631,878,65,0.115669648160939,1
632,868,65,0.119673417606076,1
632,869,65,0.129368169240917,1
633,867,65,0.122673562508638,1
633,868,65,0.145348104852549,1
633,869,65,0.15571515067464,1
633,870,65,0.153552105425753,1
634,867,65,0.150408789160082,1
634,868,65,0.176806670209776,1
634,869,65,0.186847437952167,1
634,870,65,0.178726711600279,1
634,871,65,0.136515643588311,1
635,866,65,0.127031003024393,1
635,867,65,0.177159846652011,1
635,868,65,0.198811568161346,1
635,869,65,0.203766237118817,1
635,870,65,0.187433737461995,1
635,871,65,0.135612970343307,1
636,866,65,0.130600983377754,1
636,867,65,0.180337998888075,1
636,868,65,0.182564627437894,1
636,869,65,0.166693981145143,1
636,870,65,0.147797210182863,1
637,867,65,0.139962096391483,1
637,868,65,0.133587584884119,1
637,869,65,0.114540517554644,1
646,863,65,0.124211067729323,1
628,879,66,0.117817560136683,1
628,880,66,0.13980657109567,1
628,881,66,0.130553981904515,1
629,878,66,0.129329753103181,1
629,879,66,0.150852847679237,1
629,880,66,0.164526001389293,1
629,881,66,0.138336771079107,1
629,882,66,0.114933546912299,1
630,877,66,0.132924547313749,1
630,878,66,0.144063095644453,1
630,879,66,0.159206614660653,1
630,880,66,0.165506460835937,1
630,881,66,0.132234505389047,1
630,882,66,0.116134645948301,1
631,877,66,0.130106484540413,1
631,878,66,0.127242527319268,1
631,879,66,0.121806832259456,1
631,880,66,0.118363747640034,1
632,868,66,0.12639422786578,1
632,869,66,0.135545630222039,1
632,877,66,0.118075732598809,1
633,867,66,0.131298468281931,1
633,868,66,0.157129199006334,1
633,869,66,0.171526783090568,1
633,870,66,0.166343195406758,1
633,871,66,0.129424050471315,1
633,876,66,0.11725778212967,1
633,877,66,0.114920239053426,1
634,867,66,0.155906642520008,1
634,868,66,0.18055317401149,1
634,869,66,0.194517816938318,1
634,870,66,0.18615744313493,1
634,871,66,0.138972509873489,1
634,876,66,0.118215394455772,1
634,877,66,0.116523070551249,1
635,866,66,0.134724134916157,1
635,867,66,0.183098319686144,1
635,868,66,0.198648105257674,1
635,869,66,0.198998372813943,1
635,870,66,0.181323015981961,1
635,871,66,0.1338239230362,1
636,866,66,0.141649532896509,1
636,867,66,0.189371043738433,1
636,868,66,0.18995948663792,1
636,869,66,0.168812604054502,1
636,870,66,0.144609789553053,1
637,866,66,0.127092325167003,1
637,867,66,0.153906589100143,1
637,868,66,0.145065954690721,1
637,869,66,0.123421358185473,1
638,866,66,0.120640946053567,1
638,867,66,0.124197948300311,1
639,866,66,0.116768370898553,1
646,863,66,0.115709147770371,1
627,880,67,0.121850383110881,1
627,881,67,0.118471812164824,1
628,879,67,0.125954644555804,1
628,880,67,0.150722701530211,1
628,881,67,0.144685385257568,1
629,877,67,0.114239288869476,1
629,878,67,0.132484987557505,1
629,879,67,0.154787545803766,1
629,880,67,0.163917172734312,1
629,881,67,0.147745450855655,1
629,882,67,0.130911091820081,1
630,877,67,0.147578796421227,1
630,878,67,0.155192905540394,1
630,879,67,0.163581602707134,1
630,880,67,0.159353271976174,1
630,881,67,0.134118085601613,1
630,882,67,0.126988888950652,1
630,883,67,0.11747020146638,1
631,876,67,0.122366975349323,1
631,877,67,0.148642376989925,1
631,878,67,0.135661149503172,1
631,879,67,0.126678415425471,1
631,880,67,0.119471338357941,1
631,883,67,0.118082162767786,1
631,884,67,0.116004688229135,1
632,869,67,0.141951091333932,1
632,876,67,0.120663063008401,1
632,877,67,0.128172134257406,1
632,884,67,0.116014510135595,1
633,867,67,0.132986988258653,1
633,868,67,0.162090674992503,1
633,869,67,0.179732408871316,1
633,870,67,0.166103960145577,1
633,871,67,0.126825390716381,1
633,876,67,0.125252130929735,1
633,877,67,0.123437339392986,1
634,866,67,0.114735283368832,1
634,867,67,0.153811255367778,1
634,868,67,0.178226124123083,1
634,869,67,0.192754513860853,1
634,870,67,0.179965049087392,1
634,871,67,0.133149662112286,1
634,876,67,0.123888381593832,1
634,877,67,0.12448623420946,1
635,866,67,0.134701440894876,1
635,867,67,0.174521145551798,1
635,868,67,0.186946340075008,1
635,869,67,0.181516886754314,1
635,870,67,0.164233063617972,1
635,871,67,0.125166831087422,1
635,877,67,0.114267152935045,1
636,866,67,0.142228189220135,1
636,867,67,0.17654582439901,1
636,868,67,0.181817279281977,1
636,869,67,0.163787438775605,1
636,870,67,0.138155866636505,1
637,866,67,0.137998221504765,1
637,867,67,0.155011282708951,1
637,868,67,0.149678305476648,1
637,869,67,0.13385732222891,1
638,866,67,0.146828009420362,1
638,867,67,0.143950143720165,1
638,868,67,0.118203264283525,1
639,865,67,0.118088628267362,1
639,866,67,0.143503352968039,1
639,867,67,0.124675771095029,1
627,880,68,0.117943183969066,1
628,879,68,0.131355656744484,1
628,880,68,0.152872120944836,1
628,881,68,0.149270142845851,1
628,882,68,0.121453573379157,1
629,877,68,0.117855575860967,1
629,878,68,0.138014803332457,1
629,879,68,0.154456003464848,1
629,880,68,0.157237098654997,1
629,881,68,0.150330355230799,1
629,882,68,0.138076702541514,1
630,876,68,0.118241857074255,1
630,877,68,0.156540991644172,1
630,878,68,0.1637250331613,1
630,879,68,0.158870314467767,1
630,880,68,0.145111908022863,1
630,881,68,0.132299360591534,1
630,882,68,0.132609834116715,1
630,883,68,0.125342259287213,1
631,876,68,0.135175012240875,1
631,877,68,0.160753882903467,1
631,878,68,0.145855617127106,1
631,879,68,0.132012900096655,1
631,880,68,0.121092906849981,1
631,882,68,0.119479688156119,1
631,883,68,0.126120309733467,1
631,884,68,0.118784299534135,1
632,875,68,0.117960531293065,1
632,876,68,0.133827055682625,1
632,877,68,0.137474221617446,1
632,878,68,0.118260017002026,1
632,883,68,0.119508765238912,1
632,884,68,0.117528167202106,1
633,868,68,0.163520739862309,1
633,869,68,0.180471536774584,1
633,870,68,0.158605570514269,1
633,871,68,0.12045058478736,1
633,875,68,0.118102819391204,1
633,876,68,0.131301129853706,1
633,877,68,0.128755536658134,1
633,883,68,0.114642316786585,1
633,884,68,0.114312387878345,1
634,867,68,0.144500311804311,1
634,868,68,0.175067627476805,1
634,869,68,0.188458536810103,1
634,870,68,0.168584992560318,1
634,871,68,0.124485433382554,1
634,876,68,0.124569096240457,1
634,877,68,0.124910236725375,1
635,866,68,0.127530542360493,1
635,867,68,0.15559071630575,1
635,868,68,0.172387401146162,1
635,869,68,0.167330520766431,1
635,870,68,0.148225982329613,1
635,871,68,0.115778890372355,1
636,865,68,0.114889689862351,1
636,866,68,0.137964916526985,1
636,867,68,0.158208325038494,1
636,868,68,0.169067514324674,1
636,869,68,0.15716531865515,1
636,870,68,0.130698648929638,1
637,865,68,0.118475262786638,1
637,866,68,0.150474433412609,1
637,867,68,0.157261747636077,1
637,868,68,0.153850413448088,1
637,869,68,0.141534531797492,1
638,865,68,0.130716655758148,1
638,866,68,0.1732255960484,1
638,867,68,0.16095281772831,1
638,868,68,0.128966954961212,1
639,865,68,0.141197854744885,1
639,866,68,0.163446686927273,1
639,867,68,0.132549748545062,1
640,865,68,0.124557919994377,1
640,866,68,0.116507901947507,1
669,867,68,0.113919758934143,1
628,879,69,0.126839475848427,1
628,880,69,0.140326413749199,1
628,881,69,0.136234941981033,1
628,882,69,0.115423335003136,1
629,877,69,0.120271576420226,1
629,878,69,0.138761491983864,1
629,879,69,0.141333394698658,1
629,880,69,0.141444803853466,1
629,881,69,0.138599783833264,1
629,882,69,0.129394572975069,1
630,876,69,0.119083961896091,1
630,877,69,0.149213225251222,1
630,878,69,0.154309428587391,1
630,879,69,0.137182861946203,1
630,880,69,0.127841322084196,1
630,881,69,0.126189322169743,1
630,882,69,0.13085672980543,1
630,883,69,0.122610650489084,1
631,875,69,0.120802194906383,1
631,876,69,0.135557713286821,1
631,877,69,0.152385253516831,1
631,878,69,0.140827590069709,1
631,879,69,0.125699027673657,1
631,880,69,0.119044591832187,1
631,881,69,0.114676057508416,1
631,882,69,0.121908584383932,1
631,883,69,0.123483775576645,1
632,870,69,0.126598709594632,1
632,875,69,0.123195042146578,1
632,876,69,0.134170669309458,1
632,877,69,0.134179160430031,1
632,878,69,0.120747962437261,1
632,879,69,0.116606898285279,1
632,883,69,0.118320502987131,1
632,884,69,0.114096447258623,1
633,867,69,0.121310013379462,1
633,868,69,0.160707811802662,1
633,869,69,0.176131502467159,1
633,870,69,0.151423695940533,1
633,871,69,0.117100466750185,1
633,875,69,0.114910428923833,1
633,876,69,0.129823521774813,1
633,877,69,0.127011100120416,1
633,883,69,0.114671723621633,1
634,867,69,0.132206629546612,1
634,868,69,0.169737088055817,1
634,869,69,0.18507082701583,1
634,870,69,0.158955849847405,1
634,871,69,0.119014643261291,1
634,876,69,0.117879023601688,1
634,877,69,0.118022112526732,1
635,866,69,0.118262219276017,1
635,867,69,0.136756645379431,1
635,868,69,0.162750591693315,1
635,869,69,0.166681945187826,1
635,870,69,0.141237213031922,1
636,865,69,0.114451190024071,1
636,866,69,0.134579726982091,1
636,867,69,0.146839268104506,1
636,868,69,0.16204620554551,1
636,869,69,0.156893096391578,1
636,870,69,0.128006056889424,1
637,865,69,0.131715840422143,1
637,866,69,0.165610556556799,1
637,867,69,0.166777455573185,1
637,868,69,0.16242993117882,1
637,869,69,0.146360691590347,1
637,870,69,0.11493206302715,1
638,865,69,0.153226109990843,1
638,866,69,0.189421001205103,1
638,867,69,0.169312850002577,1
638,868,69,0.138553606740664,1
639,865,69,0.160509395159934,1
639,866,69,0.168463101994539,1
639,867,69,0.130569374268715,1
640,865,69,0.135091620250896,1
640,866,69,0.116624422262272,1
668,866,69,0.129001331633822,1
668,867,69,0.116009811165958,1
669,866,69,0.141506691285656,1
669,867,69,0.133768147797599,1
628,878,70,0.116226199306597,1
628,879,70,0.1201202790194,1
628,880,70,0.122541897143865,1
628,881,70,0.118075002433101,1
629,877,70,0.12556372325721,1
629,878,70,0.136072044366941,1
629,879,70,0.12828425002419,1
629,880,70,0.123530647504355,1
629,881,70,0.122905613881402,1
629,882,70,0.118508803301743,1
630,876,70,0.123861907198482,1
630,877,70,0.141787969959381,1
630,878,70,0.142563217511465,1
630,879,70,0.122768966902201,1
630,880,70,0.11542669141002,1
630,881,70,0.119728780654358,1
630,882,70,0.12457534975644,1
630,883,70,0.116902214983584,1
631,875,70,0.124093463942863,1
631,876,70,0.135876548387045,1
631,877,70,0.143815852114216,1
631,878,70,0.137139311094778,1
631,879,70,0.123001265589156,1
631,880,70,0.116618074531358,1
631,881,70,0.115215343768139,1
631,882,70,0.120245160909208,1
631,883,70,0.117980575519438,1
632,875,70,0.123557675412419,1
632,876,70,0.134865469088129,1
632,877,70,0.133891062950742,1
632,878,70,0.127079170407392,1
632,879,70,0.123660275471265,1
632,883,70,0.11586837100219,1
633,870,70,0.142999797720545,1
633,871,70,0.114552341528368,1
633,876,70,0.126319633194897,1
633,877,70,0.125162909390958,1
633,878,70,0.114566933065662,1
634,867,70,0.123469961312523,1
634,868,70,0.156600441265046,1
634,869,70,0.170750852480241,1
634,870,70,0.147483615788123,1
634,871,70,0.115455238533831,1
635,866,70,0.113864160348535,1
635,867,70,0.127062741678961,1
635,868,70,0.15294611499554,1
635,869,70,0.160980352041623,1
635,870,70,0.136618196539693,1
636,865,70,0.117109322953612,1
636,866,70,0.135382532401221,1
636,867,70,0.145878134495393,1
636,868,70,0.15832228977328,1
636,869,70,0.154418494145814,1
636,870,70,0.128505490233727,1
637,865,70,0.14055371904486,1
637,866,70,0.172586465516535,1
637,867,70,0.174206773883885,1
637,868,70,0.165992974957954,1
637,869,70,0.146548721037035,1
637,870,70,0.118652999252216,1
638,865,70,0.162916904598621,1
638,866,70,0.19037440918995,1
638,867,70,0.171506868409725,1
638,868,70,0.143429300033003,1
638,869,70,0.116326950397441,1
639,865,70,0.161836636210434,1
639,866,70,0.163214176256726,1
639,867,70,0.12950993915694,1
640,865,70,0.130553817028388,1
668,866,70,0.140511122119602,1
668,867,70,0.126153932686636,1
669,867,70,0.138094202964774,1
