x,y,z,signal,mito.p
273,264,1,0.116679761756822,1
274,263,1,0.225398785889882,1
274,264,1,0.178630082412626,1
275,263,1,0.260515163469028,1
275,264,1,0.227024276078386,1
275,265,1,0.149255492424225,1
276,264,1,0.251417487176641,1
276,265,1,0.202305128429553,1
276,266,1,0.141898613617883,1
277,264,1,0.290254011930813,1
277,265,1,0.262570014647595,1
277,266,1,0.178391141573101,1
277,267,1,0.129675780987597,1
278,265,1,0.228269938776312,1
278,266,1,0.159506371237539,1
278,267,1,0.114624298181209,1
273,263,2,0.120248717522818,1
274,262,2,0.17050516349635,1
274,263,2,0.197733513824015,1
274,264,2,0.13807535997876,1
275,262,2,0.174862662896436,1
275,263,2,0.237159517841905,1
275,264,2,0.18928461331696,1
276,263,2,0.230843820004637,1
276,264,2,0.235254256418557,1
276,265,2,0.157849672353448,1
277,263,2,0.244002089121859,1
277,264,2,0.296101131813376,1
277,265,2,0.225085215048875,1
277,266,2,0.159186652872345,1
277,267,2,0.127839166917671,1
278,264,2,0.214959936514212,1
278,265,2,0.189891251474817,1
278,266,2,0.15240395518045,1
278,267,2,0.120344734313426,1
286,265,2,0.149847868797042,1
274,262,3,0.164636397733603,1
274,263,3,0.164712947364286,1
275,262,3,0.157513560590422,1
275,263,3,0.203016286275457,1
275,264,3,0.149914054785417,1
276,263,3,0.235093879053845,1
276,264,3,0.213928848319521,1
276,265,3,0.114435915428533,1
277,263,3,0.252177872323507,1
277,264,3,0.262291609529237,1
277,265,3,0.162285688120882,1
277,266,3,0.12700491726563,1
278,263,3,0.144698634232109,1
278,264,3,0.161520969087234,1
278,265,3,0.134642379910588,1
278,266,3,0.134559753416916,1
284,264,3,0.155853634844977,1
284,278,3,0.139889150481876,1
285,264,3,0.167177904356583,1
285,265,3,0.158684463741337,1
285,274,3,0.117446671287595,1
285,277,3,0.121765377690225,1
286,264,3,0.155433789562851,1
286,265,3,0.206911579005484,1
286,266,3,0.166615217463604,1
287,265,3,0.178383533717498,1
287,266,3,0.158907423373349,1
288,277,3,0.120071110602769,1
291,273,3,0.147943196217007,1
291,274,3,0.204176142725821,1
274,261,4,0.143076924417674,1
274,262,4,0.144810137601848,1
274,263,4,0.119667835371469,1
275,261,4,0.121352645635319,1
275,262,4,0.14565838994787,1
275,263,4,0.164307823164983,1
275,264,4,0.116406385360357,1
276,262,4,0.151298025000685,1
276,263,4,0.230726875722687,1
276,264,4,0.183082680007752,1
277,262,4,0.143361288630359,1
277,263,4,0.231656258900367,1
277,264,4,0.20311090161898,1
277,265,4,0.11515575282487,1
278,263,4,0.118470764023727,1
278,264,4,0.115314387213376,1
280,280,4,0.136378961278512,1
283,264,4,0.123943226459999,1
284,263,4,0.230096789824109,1
284,264,4,0.188785168195791,1
284,278,4,0.122541508507278,1
285,263,4,0.207167725846613,1
285,264,4,0.207057753469488,1
285,265,4,0.173938520424242,1
286,263,4,0.128760694925556,1
286,264,4,0.1794441111853,1
286,265,4,0.223613577841176,1
286,266,4,0.16481791457325,1
287,264,4,0.130926095547694,1
287,265,4,0.187627031167901,1
287,266,4,0.153136853121468,1
288,277,4,0.114890502466123,1
289,277,4,0.11947146790347,1
291,273,4,0.122286763113234,1
291,274,4,0.183876063933875,1
291,275,4,0.149268929828626,1
292,273,4,0.164079057537906,1
292,274,4,0.256998968063871,1
273,261,5,0.119227109705466,1
274,260,5,0.168124305106006,1
274,261,5,0.157183207714997,1
274,262,5,0.117606306709733,1
275,261,5,0.140171489073565,1
275,262,5,0.128946969619171,1
275,263,5,0.118425988378212,1
276,262,5,0.134941653635957,1
276,263,5,0.182927437356729,1
276,264,5,0.129307200404295,1
277,262,5,0.115304541753183,1
277,263,5,0.16790765787431,1
277,264,5,0.125783126275611,1
283,263,5,0.188411346907004,1
283,264,5,0.129625776413462,1
283,280,5,0.182713828556526,1
284,263,5,0.251744059677998,1
284,264,5,0.205073916794461,1
285,263,5,0.231877263572579,1
285,264,5,0.237636410264189,1
285,265,5,0.17110190908655,1
286,263,5,0.141765134615705,1
286,264,5,0.193296567684147,1
286,265,5,0.210014312190027,1
286,266,5,0.142537649934817,1
287,264,5,0.13006557170703,1
287,265,5,0.174734106624355,1
287,266,5,0.135290260654083,1
291,274,5,0.129944717505483,1
291,275,5,0.114173986146071,1
292,273,5,0.116029078119157,1
292,274,5,0.188681331565987,1
292,275,5,0.164851384427158,1
293,274,5,0.133340953750927,1
272,260,6,0.155517852834206,1
273,260,6,0.201487295729077,1
273,261,6,0.123715450089688,1
274,260,6,0.21496730883249,1
274,261,6,0.175169438485612,1
275,260,6,0.170860860187964,1
275,261,6,0.167398119978756,1
275,262,6,0.11485421794118,1
276,263,6,0.124885246215174,1
282,262,6,0.135648642471205,1
282,263,6,0.114208845670197,1
283,262,6,0.173996815912223,1
283,263,6,0.199335308957607,1
283,264,6,0.128070547009058,1
284,262,6,0.166782825824199,1
284,263,6,0.243503857017915,1
284,264,6,0.197920977981123,1
285,262,6,0.127880480164507,1
285,263,6,0.219649767303255,1
285,264,6,0.234899725636702,1
285,265,6,0.154540302273529,1
286,263,6,0.136348294318774,1
286,264,6,0.183160466209391,1
286,265,6,0.17801129052879,1
286,266,6,0.115234905142995,1
287,264,6,0.115485622848779,1
287,265,6,0.147174614371225,1
287,266,6,0.116038405397234,1
292,274,6,0.12132440471003,1
292,275,6,0.120470864551058,1
293,275,6,0.124817199481931,1
272,260,7,0.141156294183858,1
273,259,7,0.14891616557671,1
273,260,7,0.197332546858502,1
273,261,7,0.120256784676205,1
274,259,7,0.149248885602253,1
274,260,7,0.230705606702224,1
274,261,7,0.181674107918869,1
275,260,7,0.178686222734081,1
275,261,7,0.170812386606443,1
280,281,7,0.128579107424711,1
281,280,7,0.127932003954389,1
282,261,7,0.130465749622504,1
282,262,7,0.137480875546882,1
283,261,7,0.133284212809292,1
283,262,7,0.183076921120151,1
283,263,7,0.185460064222549,1
284,262,7,0.1565777354669,1
284,263,7,0.208519074142345,1
284,264,7,0.168084993926435,1
284,279,7,0.147628883433426,1
285,263,7,0.182664118404048,1
285,264,7,0.196589132175915,1
285,265,7,0.123792647448014,1
286,263,7,0.123596162211353,1
286,264,7,0.152858024035925,1
286,265,7,0.133552301392808,1
273,260,8,0.170997330514171,1
274,259,8,0.137535567313788,1
274,260,8,0.213735637051679,1
274,261,8,0.170956087928533,1
275,260,8,0.154234056643335,1
275,261,8,0.148764149787041,1
282,261,8,0.125302901000176,1
282,262,8,0.13706246704244,1
283,261,8,0.145565105390234,1
283,262,8,0.192855724249482,1
283,263,8,0.160291758671471,1
284,262,8,0.147362490718652,1
284,263,8,0.166827789899575,1
284,264,8,0.132633540948494,1
284,279,8,0.137404761660252,1
285,263,8,0.140689094122505,1
285,264,8,0.14528813704956,1
286,264,8,0.11482166668284,1
273,260,9,0.131088086343084,1
274,259,9,0.120108254838949,1
274,260,9,0.172707048850159,1
274,261,9,0.13919827239967,1
275,260,9,0.118699258782881,1
281,281,9,0.159527510712473,1
282,262,9,0.122069362162097,1
282,280,9,0.146315515531378,1
283,261,9,0.134885760628692,1
283,262,9,0.179318028055133,1
283,263,9,0.126459283274994,1
283,280,9,0.193726458633192,1
284,262,9,0.13345867530605,1
284,263,9,0.128837904060748,1
284,279,9,0.130960307344176,1
274,260,10,0.135488276883359,1
281,281,10,0.124616027052498,1
282,280,10,0.1156043572144,1
282,281,10,0.207670951341851,1
283,262,10,0.147455151102376,1
283,280,10,0.169812354008077,1
284,262,10,0.115583170632,1
294,280,10,0.14733576900911,1
282,281,11,0.154971983306245,1
283,280,11,0.150014982529254,1
291,279,11,0.134617153863062,1
293,280,11,0.154168094415419,1
282,281,12,0.116007608891967,1
282,282,12,0.121862089315942,1
283,280,12,0.121826699832834,1
289,279,12,0.132627840945224,1
290,279,12,0.119250475008124,1
290,282,12,0.207724394760934,1
291,280,12,0.201935617473817,1
292,280,12,0.157764054535747,1
292,282,12,0.248469878874459,1
293,281,12,0.158972408121365,1
293,282,12,0.172998738273656,1
294,281,12,0.11415765163257,1
290,280,13,0.155461500529158,1
290,282,13,0.158153550833524,1
291,280,13,0.139161375477681,1
291,281,13,0.190544549576791,1
291,282,13,0.171359975556879,1
292,281,13,0.17179025514251,1
292,282,13,0.170556157327251,1
293,281,13,0.115429188105667,1
293,282,13,0.124075445337487,1
283,281,14,0.176748068523272,1
284,280,14,0.136338967040697,1
286,280,14,0.153763900588551,1
287,280,14,0.164579503692707,1
287,282,14,0.251362630533608,1
288,280,14,0.192296841284304,1
289,280,14,0.157812975638186,1
289,282,14,0.182766106065849,1
290,281,14,0.141560276027134,1
290,282,14,0.116529665596354,1
291,281,14,0.117975005061697,1
283,281,15,0.131762064622209,1
283,282,15,0.1819243898806,1
284,281,15,0.246812591147056,1
285,280,15,0.117662517692386,1
286,280,15,0.126481600436554,1
287,280,15,0.124978083251892,1
287,281,15,0.260604761867525,1
287,283,15,0.125638223713163,1
288,280,15,0.129235231974588,1
288,281,15,0.210524580251288,1
288,282,15,0.182730351499888,1
289,281,15,0.164766744089356,1
289,282,15,0.129119371164334,1
283,282,16,0.115564516075846,1
284,281,16,0.172393678215878,1
284,282,16,0.231490087317455,1
285,281,16,0.233055656810435,1
287,281,16,0.214195924092538,1
287,283,16,0.146888884042054,1
288,281,16,0.133314243818252,1
288,282,16,0.14138107923014,1
284,282,17,0.146400049877384,1
285,281,17,0.18666428412811,1
285,283,17,0.161533652772194,1
287,281,17,0.172718354641767,1
287,283,17,0.182526258407623,1
288,282,17,0.122758026193446,1
285,281,18,0.126516754382337,1
285,282,18,0.218516526570636,1
285,283,18,0.145279869689446,1
286,281,18,0.169957562769048,1
286,283,18,0.233339502841004,1
287,281,18,0.119790420772357,1
287,282,18,0.241277252021829,1
287,283,18,0.1837107520622,1
299,280,18,0.11625892721793,1
249,272,19,0.140088803695562,1
285,282,19,0.153967192853911,1
285,283,19,0.118020993724438,1
286,281,19,0.114720350302416,1
286,282,19,0.245712207871299,1
286,283,19,0.197808155602364,1
287,282,19,0.17478247421408,1
294,270,19,0.116555986892442,1
294,271,19,0.123784839385685,1
295,270,19,0.139033360941448,1
295,271,19,0.168541594808154,1
295,272,19,0.133406244697466,1
296,271,19,0.160535622241092,1
296,272,19,0.145130539025284,1
298,281,19,0.146751624665808,1
298,282,19,0.1416209151115,1
299,280,19,0.120170978428644,1
299,281,19,0.207401920609035,1
249,272,20,0.158836279324279,1
286,282,20,0.143120522376564,1
286,283,20,0.137529349128404,1
294,270,20,0.160276013001283,1
294,271,20,0.16379258526616,1
295,270,20,0.187596411315628,1
295,271,20,0.227460514758345,1
295,272,20,0.176862233464785,1
295,273,20,0.113772783643233,1
296,271,20,0.197747198542608,1
296,272,20,0.19908441459883,1
296,273,20,0.14696995598938,1
298,281,20,0.154686370745737,1
298,282,20,0.178787845313029,1
299,281,20,0.218099177984157,1
299,282,20,0.235123556756817,1
300,281,20,0.13203353316634,1
294,270,21,0.189220193858524,1
294,271,21,0.191840935237693,1
294,272,21,0.130562202157164,1
295,270,21,0.208555558874015,1
295,271,21,0.263270738189994,1
295,272,21,0.213604372100359,1
295,273,21,0.131469268173283,1
296,271,21,0.21480059551373,1
296,272,21,0.239978876070529,1
296,273,21,0.174041026268159,1
297,272,21,0.150006232317624,1
297,273,21,0.128149993748839,1
298,281,21,0.138133655466741,1
298,282,21,0.194402709847505,1
298,283,21,0.123452296013135,1
299,281,21,0.193927053996178,1
299,282,21,0.258615484280286,1
300,281,21,0.121951793706235,1
253,283,22,0.116552712923622,1
294,270,22,0.191945761124263,1
294,271,22,0.209139644332986,1
294,272,22,0.156311484074521,1
295,270,22,0.200944123103489,1
295,271,22,0.276122596800894,1
295,272,22,0.247773536326309,1
295,273,22,0.149962316383345,1
296,271,22,0.216941347154789,1
296,272,22,0.26071605325367,1
296,273,22,0.18850453724971,1
297,272,22,0.150676877743598,1
297,273,22,0.133903746635703,1
298,282,22,0.176319484806382,1
298,283,22,0.140332714372648,1
299,281,22,0.147821211436298,1
299,282,22,0.238197460172758,1
299,283,22,0.172965551064539,1
300,282,22,0.146925498319253,1
294,270,23,0.16476748603193,1
294,271,23,0.211736160698261,1
294,272,23,0.196993938399829,1
294,273,23,0.129901614174975,1
295,270,23,0.176570072966637,1
295,271,23,0.27747912691778,1
295,272,23,0.295016505984674,1
295,273,23,0.189772528886062,1
296,271,23,0.210018151448427,1
296,272,23,0.265149902077712,1
296,273,23,0.198006949104812,1
297,272,23,0.141185324159186,1
297,273,23,0.130006428284679,1
298,282,23,0.135990489568099,1
298,283,23,0.137468910250763,1
299,282,23,0.183721834093349,1
299,283,23,0.167082252648829,1
300,282,23,0.125712641731052,1
251,280,24,0.131467631188873,1
251,281,24,0.168455988767319,1
252,281,24,0.147948966881474,1
252,282,24,0.14851537526419,1
253,282,24,0.11900265441144,1
253,283,24,0.181945835554058,1
294,270,24,0.121666722881575,1
294,271,24,0.183276173920384,1
294,272,24,0.210330591710273,1
294,273,24,0.146015676516429,1
295,270,24,0.142256771674545,1
295,271,24,0.250065479376399,1
295,272,24,0.31243416142918,1
295,273,24,0.220043114636299,1
296,271,24,0.185387024098012,1
296,272,24,0.244793141228463,1
296,273,24,0.194108535505226,1
297,272,24,0.123659321545098,1
297,273,24,0.116506688930283,1
298,283,24,0.123741347418591,1
299,282,24,0.126538294270724,1
299,283,24,0.146972476238759,1
252,281,25,0.180592108331341,1
253,282,25,0.143808138266816,1
258,285,25,0.114472258837808,1
294,271,25,0.149131152270264,1
294,272,25,0.201697559899262,1
294,273,25,0.146797648659147,1
295,271,25,0.214929104678346,1
295,272,25,0.310083593138854,1
295,273,25,0.23915418923389,1
296,271,25,0.158505832233924,1
296,272,25,0.227335538653606,1
296,273,25,0.195956526027958,1
299,283,25,0.119453802604082,1
252,281,26,0.183754585558415,1
253,281,26,0.120844285426392,1
253,282,26,0.185949122147678,1
263,286,26,0.116271693340955,1
294,271,26,0.118051578246112,1
294,272,26,0.169558150349881,1
294,273,26,0.129009763870063,1
295,271,26,0.173404463093138,1
295,272,26,0.272996145007706,1
295,273,26,0.228468967816086,1
296,271,26,0.131200873391245,1
296,272,26,0.204809691023079,1
296,273,26,0.19429002879114,1
252,281,27,0.153052460097857,1
253,281,27,0.122975792227438,1
253,282,27,0.215196274666293,1
254,282,27,0.130377211141971,1
263,286,27,0.122943829812411,1
294,272,27,0.13405308907673,1
295,271,27,0.135345835685959,1
295,272,27,0.218775641182062,1
295,273,27,0.197274369139184,1
296,272,27,0.17426449230542,1
296,273,27,0.184330015020686,1
253,281,28,0.117989172631806,1
295,272,28,0.156845129215306,1
295,273,28,0.149451223941446,1
296,272,28,0.135930922178562,1
296,273,28,0.156153968488309,1
296,273,29,0.120053268650387,1
255,281,32,0.132401254038405,1
255,280,33,0.133158271001521,1
255,281,33,0.173653496707047,1
256,281,33,0.117194316597401,1
256,282,33,0.11907385734484,1
275,284,33,0.142270362178208,1
276,284,33,0.141620844450303,1
279,284,33,0.132572277690215,1
280,283,33,0.115395953789084,1
280,284,33,0.139424647322897,1
256,281,34,0.124595170222354,1
271,264,34,0.142324806630922,1
274,284,34,0.13283095655759,1
274,285,34,0.123081006750594,1
275,283,34,0.128028409381584,1
275,284,34,0.180707509843811,1
275,285,34,0.129352435347595,1
276,283,34,0.114196362191963,1
276,284,34,0.171325704876065,1
277,284,34,0.130292735680296,1
278,284,34,0.142823168280396,1
279,283,34,0.162775582203516,1
279,284,34,0.210550088943605,1
279,285,34,0.130418818810463,1
280,283,34,0.176094888189961,1
280,284,34,0.225210827104392,1
281,283,34,0.131624263510115,1
281,284,34,0.154637296544036,1
256,280,35,0.127779599528134,1
270,264,35,0.127911406215302,1
270,265,35,0.137276641132222,1
271,264,35,0.185130488620297,1
271,265,35,0.170799408499826,1
272,264,35,0.142834415187673,1
272,265,35,0.121222169734038,1
273,284,35,0.124136143306185,1
273,285,35,0.125906971801189,1
274,283,35,0.136474471663871,1
274,284,35,0.174813647579067,1
274,285,35,0.14654310347183,1
275,283,35,0.149251547174028,1
275,284,35,0.196912230501726,1
275,285,35,0.138460651935283,1
276,283,35,0.129027676483643,1
276,284,35,0.173705232480522,1
277,283,35,0.117695422256713,1
277,284,35,0.146778546582075,1
278,283,35,0.166607562500536,1
278,284,35,0.196547583391754,1
278,285,35,0.114738204031664,1
279,283,35,0.248405412308559,1
279,284,35,0.308894954027354,2
279,285,35,0.154780326584749,1
280,283,35,0.236188609433797,1
280,284,35,0.309009330952459,2
280,285,35,0.154309982100105,1
281,283,35,0.157800892573404,1
281,284,35,0.199531299565886,1
282,284,35,0.121290086921752,1
270,265,36,0.166115042176727,1
271,264,36,0.189799179934406,1
271,265,36,0.216524610965355,1
271,266,36,0.116965539193458,1
272,264,36,0.150503486941669,1
272,265,36,0.16209635144204,1
273,283,36,0.14028712612336,1
273,284,36,0.167752014809833,1
273,285,36,0.135988569938899,1
274,282,36,0.136696689353308,1
274,283,36,0.181992283514582,1
274,284,36,0.217336413910307,1
274,285,36,0.156573272034587,1
275,282,36,0.129055458111147,1
275,283,36,0.168806138554926,1
275,284,36,0.194986100471367,1
275,285,36,0.134990339201071,1
276,282,36,0.115994889876408,1
276,283,36,0.147012729567632,1
276,284,36,0.160088866819565,1
277,283,36,0.161159077763967,1
277,284,36,0.169309528926292,1
278,282,36,0.123435949722768,1
278,283,36,0.247678756106658,1
278,284,36,0.266819319977362,2
278,285,36,0.138515249487259,1
279,282,36,0.132865286122734,1
279,283,36,0.324562920451791,2
279,284,36,0.380532571561657,2
279,285,36,0.177996487007902,2
280,283,36,0.267140239582914,2
280,284,36,0.344739094833828,2
280,285,36,0.170085930611269,2
281,283,36,0.167492005156572,1
281,284,36,0.220482109102962,2
281,285,36,0.123520766713564,1
282,283,36,0.116776402721342,1
282,284,36,0.139146265758271,1
283,283,36,0.115510189391795,1
283,284,36,0.126658359422233,1
284,283,36,0.14318887530833,1
284,284,36,0.14251447306202,1
285,283,36,0.120175229877363,1
289,268,36,0.120973406988053,1
289,269,36,0.122505141544271,1
290,268,36,0.145400547238,1
290,269,36,0.153488651670351,1
291,269,36,0.124409790570574,1
291,270,36,0.117524398604903,1
291,271,36,0.127129516510648,1
292,270,36,0.126739631576285,1
292,271,36,0.177939322099082,1
292,272,36,0.149843735116985,1
293,271,36,0.13432856175539,1
293,272,36,0.134616741672743,1
270,265,37,0.166926633138085,1
270,266,37,0.116887882537347,1
271,264,37,0.160839865804022,1
271,265,37,0.227455003184936,1
271,266,37,0.143109511006612,1
272,264,37,0.135531333106401,1
272,265,37,0.187544781533949,1
272,266,37,0.127213815319329,1
273,282,37,0.147915991655949,1
273,283,37,0.199324168042126,1
273,284,37,0.204431865599764,1
273,285,37,0.136309301114591,1
274,281,37,0.119708171138406,1
274,282,37,0.171376050979322,1
274,283,37,0.225670595963135,1
274,284,37,0.237970661282346,1
274,285,37,0.15062329300212,1
275,281,37,0.129913343933769,1
275,282,37,0.167528266127782,1
275,283,37,0.181032775113013,1
275,284,37,0.177542818565881,1
275,285,37,0.125275555116723,1
276,281,37,0.124046827552478,1
276,282,37,0.168524883434933,1
276,283,37,0.166110425645153,1
276,284,37,0.143097180627639,1
277,282,37,0.157176436016898,1
277,283,37,0.212992846543005,1
277,284,37,0.191545029696075,1
277,285,37,0.117919606682816,1
278,282,37,0.161242128224824,1
278,283,37,0.320276565100774,2
278,284,37,0.322187926940844,2
278,285,37,0.162996480883932,1
279,282,37,0.147114140162986,2
279,283,37,0.348209054262053,2
279,284,37,0.391907399160112,2
279,285,37,0.193441764668252,2
280,283,37,0.255336781160104,2
280,284,37,0.318455037196525,2
280,285,37,0.170550728191905,1
281,283,37,0.157164882911098,1
281,284,37,0.204860166671864,1
281,285,37,0.127572079367788,1
282,283,37,0.113973131692028,1
282,284,37,0.145772354682656,1
283,283,37,0.13332835250403,1
283,284,37,0.159430422227036,1
284,283,37,0.170984788151606,1
284,284,37,0.178213169570198,1
285,283,37,0.130921019718337,1
285,284,37,0.122249006480009,1
289,268,37,0.163090165855021,1
289,269,37,0.178872308997837,1
290,268,37,0.21171491523153,1
290,269,37,0.252585658094584,1
290,270,37,0.144311363762055,1
291,268,37,0.145129691090914,1
291,269,37,0.187966840866932,1
291,270,37,0.153417330968287,1
291,271,37,0.150079743516812,1
292,270,37,0.161506295111875,1
292,271,37,0.227518951568721,1
292,272,37,0.190194705987707,1
293,271,37,0.164818880276283,1
293,272,37,0.161294865031931,1
293,273,37,0.117306408810453,1
267,269,38,0.130188616405702,1
268,269,38,0.138321213838779,1
268,270,38,0.117881555627934,1
270,266,38,0.117298035458543,1
271,265,38,0.207680302173661,1
271,266,38,0.153065826841061,1
272,265,38,0.192483598829436,1
272,266,38,0.153114194430786,1
272,282,38,0.11605277317407,1
272,283,38,0.150920022924377,1
272,284,38,0.126741174345764,1
273,265,38,0.131184326894151,1
273,266,38,0.121313040034091,1
273,281,38,0.119495528041237,1
273,282,38,0.193973278196244,1
273,283,38,0.26543045058573,1
273,284,38,0.224937415377328,1
274,281,38,0.146143573284,1
274,282,38,0.202098091120723,1
274,283,38,0.256935161002481,1
274,284,38,0.231919118555263,1
275,281,38,0.172829457598053,1
275,282,38,0.203169668181611,1
275,283,38,0.187682323554986,1
275,284,38,0.161075308914268,1
276,281,38,0.168508855119955,1
276,282,38,0.215302172247692,1
276,283,38,0.182820774279023,1
276,284,38,0.138956387343581,1
277,281,38,0.119143399740099,1
277,282,38,0.200863098263628,1
277,283,38,0.252730584210765,2
277,284,38,0.20763182859214,2
278,282,38,0.191076875708555,2
278,283,38,0.354208519686539,2
278,284,38,0.339195229257429,2
278,285,38,0.171575209564624,2
279,282,38,0.15221272242614,2
279,283,38,0.32631896897964,2
279,284,38,0.360391821993326,2
279,285,38,0.194943032471458,2
280,283,38,0.223791290753021,2
280,284,38,0.266502098307815,2
280,285,38,0.15983906770935,1
281,283,38,0.1394226217019,1
281,284,38,0.171266702776109,1
281,285,38,0.123425845171518,1
282,284,38,0.146807670772333,1
283,283,38,0.143658736941457,1
283,284,38,0.18377053143533,1
283,285,38,0.124703434953871,1
284,283,38,0.168283304577366,1
284,284,38,0.187374488047847,1
285,266,38,0.115123590203117,1
285,267,38,0.139545171772189,1
285,283,38,0.119607149179638,1
285,284,38,0.11864499098316,1
286,266,38,0.12529152454737,1
286,267,38,0.160088313306851,1
287,267,38,0.12818751484474,1
288,268,38,0.115152349310521,1
289,268,38,0.177436226149373,1
289,269,38,0.209210541067864,1
289,270,38,0.127742985250935,1
290,268,38,0.2339026725855,1
290,269,38,0.320597414045128,1
290,270,38,0.190159446050129,1
291,269,38,0.238315652802531,1
291,270,38,0.188748459703662,1
291,271,38,0.160343635767342,1
291,272,38,0.120594615861705,1
292,270,38,0.17800493102101,1
292,271,38,0.236601365042436,1
292,272,38,0.197895304412679,1
292,273,38,0.133314196710787,1
293,271,38,0.169740267809707,1
293,272,38,0.166757717545336,1
293,273,38,0.149620445732718,1
293,274,38,0.11580704885958,1
294,274,38,0.114194277686635,1
267,269,39,0.150062537515207,1
267,270,39,0.145837327653806,1
268,269,39,0.179975236076706,1
268,270,39,0.17038349669103,1
269,269,39,0.115217769802589,1
271,266,39,0.137212763409635,1
272,265,39,0.159370937275562,1
272,266,39,0.145099283222234,1
272,282,39,0.141708440781535,1
272,283,39,0.201241559637721,1
272,284,39,0.15873884930972,1
273,265,39,0.124246480766163,1
273,266,39,0.128688267198064,1
273,281,39,0.130356295427495,1
273,282,39,0.219891334383955,1
273,283,39,0.300609975721755,1
273,284,39,0.226266740933156,1
274,281,39,0.161249995171485,1
274,282,39,0.215885904400676,1
274,283,39,0.258761776512953,1
274,284,39,0.207713442275313,1
275,280,39,0.1167679704851,1
275,281,39,0.200472271179964,1
275,282,39,0.223308721881201,1
275,283,39,0.194229083508251,1
275,284,39,0.157024278904834,1
276,281,39,0.196984304923229,1
276,282,39,0.241574523679933,1
276,283,39,0.202621596379659,1
276,284,39,0.154113014011927,1
277,266,39,0.115535650976646,1
277,281,39,0.140512629558483,1
277,282,39,0.232691539659445,1
277,283,39,0.27759943938348,2
277,284,39,0.220044834058773,2
278,282,39,0.216124244620021,2
278,283,39,0.361396694883724,2
278,284,39,0.32731993195044,2
278,285,39,0.165411174211037,2
279,282,39,0.164039840573264,2
279,283,39,0.31226660017605,2
279,284,39,0.327229038096655,2
279,285,39,0.181724230261666,2
280,283,39,0.194214444863492,2
280,284,39,0.217457927616365,2
281,266,39,0.149419685493605,1
281,283,39,0.121080376264282,1
281,284,39,0.138566243318159,1
282,266,39,0.155736313703307,1
282,267,39,0.117685859441311,1
282,283,39,0.12321096446976,1
282,284,39,0.148509369062398,1
282,285,39,0.127805331980909,1
283,283,39,0.154875307011127,1
283,284,39,0.185213503750555,1
283,285,39,0.128989696089958,1
284,267,39,0.121664779698642,1
284,283,39,0.142905653451672,1
284,284,39,0.159374399674242,1
285,266,39,0.125892227164633,1
285,267,39,0.17759557892672,1
286,266,39,0.136453025990413,1
286,267,39,0.203227257057617,1
286,268,39,0.12640568675665,1
287,267,39,0.141997975038508,1
287,268,39,0.11694834496872,1
288,268,39,0.130746757428305,1
288,269,39,0.123799489807311,1
289,268,39,0.16759069529582,1
289,269,39,0.217396428820762,1
289,270,39,0.153148288458605,1
290,269,39,0.332999608348536,1
290,270,39,0.241002050211093,1
290,271,39,0.12886673382935,1
291,270,39,0.227543211913214,1
291,271,39,0.168442339379325,1
291,272,39,0.12293983745475,1
292,271,39,0.210823500670669,1
292,272,39,0.182123218713648,1
292,273,39,0.162852508693918,1
292,274,39,0.132221173976442,1
292,283,39,0.114328263094062,1
293,272,39,0.156681230567582,1
293,273,39,0.178199131545618,1
293,274,39,0.17590374965058,1
293,275,39,0.135109462203278,1
294,273,39,0.118085048100019,1
294,274,39,0.141518091292195,1
294,275,39,0.125256182171728,1
295,275,39,0.122716112326431,1
267,269,40,0.142543232169424,1
267,270,40,0.157769059703907,1
268,269,40,0.180918386411041,1
268,270,40,0.188645930306013,1
269,269,40,0.129707366542903,1
269,270,40,0.129184085044426,1
271,266,40,0.118534523977653,1
272,266,40,0.126070034291408,1
272,282,40,0.156856128808391,1
272,283,40,0.242809728520621,1
273,266,40,0.118573905818422,1
273,281,40,0.133516334843253,1
273,282,40,0.218365806236256,1
273,283,40,0.294961767110303,1
274,281,40,0.171576622788575,1
274,282,40,0.218400783529044,1
274,283,40,0.240758410401931,1
275,280,40,0.134897725924811,1
275,281,40,0.211177018642026,1
275,282,40,0.231103547013109,1
275,283,40,0.205856630879754,1
275,284,40,0.163188573349479,1
276,266,40,0.116745617992941,1
276,280,40,0.118699211675416,1
276,281,40,0.206063479758723,1
276,282,40,0.249265311975311,1
276,283,40,0.230815932385336,1
276,284,40,0.176401769770932,1
277,266,40,0.161273843325659,1
277,267,40,0.129884879248022,1
277,281,40,0.154725116635728,1
277,282,40,0.246349666088156,1
277,283,40,0.291423266320452,2
277,284,40,0.222861130302169,1
278,266,40,0.137955212389188,1
278,267,40,0.120707638447191,1
278,281,40,0.115881549315533,1
278,282,40,0.23973563667482,2
278,283,40,0.363509865104005,2
278,284,40,0.29746774292778,2
279,282,40,0.19535492836886,2
279,283,40,0.328662989332326,2
279,284,40,0.295898216407737,2
280,266,40,0.130070682866987,1
280,267,40,0.116455200470999,1
280,282,40,0.120626024764018,1
280,283,40,0.18339083349028,2
280,284,40,0.181420575542049,1
281,265,40,0.114934712822058,1
281,266,40,0.19286740690081,1
281,267,40,0.160736877108589,1
281,283,40,0.115606406389129,1
282,266,40,0.200774583336827,1
282,267,40,0.181576607243112,1
282,283,40,0.146085748870669,1
282,284,40,0.151513235454699,1
283,266,40,0.127987720308659,1
283,267,40,0.135152129789734,1
283,283,40,0.167633174452416,1
283,284,40,0.168431657761628,1
284,267,40,0.128003878169166,1
284,283,40,0.120204306960156,1
284,284,40,0.121407031203702,1
285,266,40,0.123953189688854,1
285,267,40,0.195032736861752,1
285,268,40,0.127579345694269,1
286,267,40,0.216763280936956,1
286,268,40,0.149225108109277,1
287,268,40,0.130116801075256,1
288,268,40,0.134547010847624,1
288,269,40,0.141007222610754,1
289,269,40,0.211689665630271,1
289,270,40,0.183385404354934,1
290,269,40,0.299952355509863,1
290,270,40,0.287938562255671,1
290,271,40,0.17164926249966,1
291,270,40,0.249257609904778,1
291,271,40,0.181489434879064,1
291,272,40,0.132339107515158,1
291,273,40,0.120832802981789,1
291,283,40,0.127204358495723,1
292,271,40,0.169796714329686,1
292,272,40,0.161507849658221,1
292,273,40,0.18425945981493,1
292,274,40,0.186944538214471,1
292,275,40,0.14586196485802,1
293,272,40,0.131708680087458,1
293,273,40,0.184802573556187,1
293,274,40,0.229470307646606,1
293,275,40,0.191980938623778,1
293,276,40,0.127199883286545,1
293,277,40,0.119522862147823,1
294,274,40,0.153321632153068,1
294,275,40,0.147766649214921,1
267,269,41,0.118872508262414,1
267,270,41,0.143423764905862,1
268,269,41,0.154640217206868,1
268,270,41,0.172520844817741,1
269,269,41,0.131930697570169,1
269,270,41,0.137571804731267,1
272,282,41,0.154556942985552,1
273,281,41,0.134394629975102,1
273,282,41,0.196853416831629,1
273,283,41,0.25451840672378,1
274,280,41,0.125740529350353,1
274,281,41,0.179202814972524,1
274,282,41,0.220179702731168,1
274,283,41,0.223131409382808,1
275,280,41,0.148513891379042,1
275,281,41,0.213449388540393,1
275,282,41,0.247394556770101,1
275,283,41,0.230993127115066,1
276,266,41,0.12113635170961,1
276,267,41,0.120382290739925,1
276,280,41,0.132166776631193,1
276,281,41,0.201125887257327,1
276,282,41,0.25632104453455,1
276,283,41,0.265125641733219,2
277,266,41,0.182995083676519,1
277,267,41,0.184627486885517,1
277,268,41,0.114497555546532,1
277,281,41,0.164541900158743,1
277,282,41,0.251687601381153,2
277,283,41,0.301690809399522,2
277,284,41,0.222899428671243,2
278,266,41,0.162455204333811,1
278,267,41,0.178215042091933,1
278,268,41,0.118899536170478,1
278,281,41,0.145826740251039,1
278,282,41,0.267744816789176,2
278,283,41,0.36680637484597,2
278,284,41,0.270141880147492,2
279,266,41,0.125147952770809,1
279,267,41,0.140384344154326,1
279,281,41,0.125097253361565,1
279,282,41,0.238419124349481,2
279,283,41,0.343559641678009,2
279,284,41,0.261101910499773,2
280,266,41,0.138810460193768,1
280,267,41,0.146039136034017,1
280,282,41,0.141585843603781,1
280,283,41,0.185278406060507,2
280,284,41,0.160293760738735,1
281,266,41,0.202727870820779,1
281,267,41,0.209838742667841,1
281,268,41,0.117893167618065,1
281,283,41,0.124742263281926,1
282,266,41,0.208868375995581,1
282,267,41,0.230072529479616,1
282,268,41,0.126038330967439,1
282,282,41,0.12184078496488,1
282,283,41,0.165449036836059,1
282,284,41,0.155521409447817,1
283,267,41,0.150362376530156,1
283,282,41,0.132285087029628,1
283,283,41,0.173100396183202,1
284,267,41,0.123267564089,1
285,267,41,0.17755179253797,1
285,268,41,0.141454814189786,1
286,268,41,0.165810339316013,1
287,268,41,0.140794485298655,1
287,269,41,0.12166620469946,1
288,268,41,0.131811692336624,1
288,269,41,0.153392917524533,1
288,270,41,0.122556995086409,1
289,269,41,0.200140870163441,1
289,270,41,0.213502148901233,1
289,271,41,0.143209637923544,1
290,270,41,0.335000003297523,3
290,271,41,0.238282371378484,1
290,272,41,0.134897372618824,1
291,271,41,0.217571880574285,1
291,272,41,0.164745816598014,1
291,273,41,0.149188281848486,1
291,274,41,0.145466792110706,1
291,275,41,0.116371384513835,1
291,283,41,0.129562546418518,1
292,272,41,0.159016371163109,1
292,273,41,0.204424964356137,1
292,274,41,0.245604190453974,1
292,275,41,0.200806121784668,1
292,276,41,0.143154239544663,1
292,277,41,0.126510971941004,1
293,273,41,0.175482126061649,1
293,274,41,0.255916061657642,1
293,275,41,0.225672103402016,1
293,276,41,0.151292042352626,1
293,277,41,0.138736430812465,1
293,278,41,0.116669810304833,1
294,274,41,0.147664637999387,1
294,275,41,0.149998459585893,1
294,276,41,0.118342784818093,1
268,269,42,0.1147025201269,1
268,270,42,0.131173138871205,1
269,269,42,0.113761878265077,1
269,270,42,0.121036601652398,1
272,281,42,0.115412417848114,1
272,282,42,0.151014496945505,1
273,281,42,0.140539092176967,1
273,282,42,0.17625612526591,1
274,280,42,0.135969397200629,1
274,281,42,0.186753435005689,1
274,282,42,0.221403413350387,1
274,283,42,0.211399836951642,1
275,280,42,0.155647669230977,1
275,281,42,0.22018860604206,1
275,282,42,0.268053182255296,1
275,283,42,0.254680103097514,1
276,267,42,0.135521440538744,1
276,280,42,0.145798004697368,1
276,281,42,0.1987070131427,1
276,282,42,0.262756301118077,1
276,283,42,0.29168221605575,2
277,266,42,0.175194935401062,1
277,267,42,0.2267707672553,1
277,268,42,0.152024728310051,1
277,280,42,0.139883297379346,1
277,281,42,0.193001015448516,1
277,282,42,0.265259097181664,2
277,283,42,0.318730592313249,2
277,284,42,0.225934586197192,2
278,266,42,0.171484433479502,1
278,267,42,0.236376568219288,1
278,268,42,0.168552865269164,1
278,280,42,0.137687453557928,1
278,281,42,0.212395311902766,2
278,282,42,0.305792762578659,2
278,283,42,0.363253765370341,2
278,284,42,0.246669643544407,2
279,266,42,0.127940106438375,1
279,267,42,0.166602498448045,1
279,268,42,0.137035768886631,1
279,280,42,0.114084411301307,1
279,281,42,0.185702926758538,1
279,282,42,0.269990123448881,2
279,283,42,0.310664828596191,2
279,284,42,0.21091239245719,1
280,266,42,0.136885672726163,1
280,267,42,0.168728105039095,1
280,268,42,0.135465370878485,1
280,281,42,0.13370631924974,1
280,282,42,0.166769906601913,1
280,283,42,0.174911819536201,1
280,284,42,0.14246259596615,1
281,266,42,0.189665123865782,1
281,267,42,0.244847809441636,1
281,268,42,0.160653237804419,1
281,282,42,0.12562963837766,1
281,283,42,0.135276057753375,1
281,284,42,0.139084460764145,1
282,266,42,0.191141683803577,1
282,267,42,0.254723441965346,1
282,268,42,0.157147453149035,1
282,281,42,0.117458754352376,1
282,282,42,0.148409442352193,1
282,283,42,0.166423890494364,1
282,284,42,0.157560620947993,1
283,267,42,0.158317119728993,1
283,268,42,0.114159477046841,1
283,281,42,0.126811317361202,1
283,282,42,0.157120825654424,1
283,283,42,0.160201371222935,1
285,268,42,0.136733963135017,1
286,268,42,0.167665372404767,1
286,269,42,0.121289604070236,1
286,275,42,0.114574446706336,1
287,269,42,0.130220602374461,1
287,274,42,0.11902412363863,1
288,269,42,0.14590467955194,1
288,270,42,0.122876442583679,1
289,270,42,0.221607435781455,3
289,271,42,0.162390313800725,1
290,269,42,0.23441442453191,3
290,270,42,0.361431766391443,3
290,271,42,0.289198404300572,3
290,272,42,0.169846000514979,1
290,273,42,0.11492649256941,1
290,280,42,0.125912118291744,1
291,270,42,0.274127996070107,3
291,271,42,0.25521352447784,1
291,272,42,0.20814704293723,1
291,273,42,0.181672211843401,1
291,274,42,0.189243146970863,1
291,275,42,0.161024833265483,1
291,276,42,0.119014478385164,1
291,279,42,0.121525247387208,1
291,280,42,0.141347044086652,1
291,281,42,0.120345052288815,1
292,272,42,0.16770619102322,1
292,273,42,0.218559111719028,1
292,274,42,0.293505793134728,1
292,275,42,0.258513049097567,1
292,276,42,0.181992212853385,1
292,277,42,0.13589661616715,1
292,278,42,0.11744335021131,1
292,279,42,0.115694414910681,1
292,280,42,0.134030124187526,1
292,281,42,0.142314937616997,1
292,282,42,0.123303907498274,1
293,273,42,0.156369214272921,1
293,274,42,0.246801167586785,1
293,275,42,0.227830072821546,1
293,276,42,0.160369921732831,1
293,277,42,0.130918134386104,1
293,278,42,0.113819584909745,1
293,280,42,0.119139218952577,1
293,281,42,0.15490869442697,1
294,275,42,0.133230368976757,1
270,277,43,0.119195818571817,1
271,281,43,0.130435577291149,1
272,267,43,0.113776799554627,1
272,280,43,0.132365099058991,1
272,281,43,0.1505324462558,1
272,282,43,0.157414199169797,1
273,280,43,0.135456703104919,1
273,281,43,0.159168245630382,1
273,282,43,0.172360938527679,1
274,269,43,0.138667406599322,1
274,270,43,0.165592867703678,1
274,271,43,0.124884551380065,1
274,278,43,0.120022625244382,1
274,280,43,0.137922979106238,1
274,281,43,0.188945675106032,1
274,282,43,0.218216828878082,1
275,269,43,0.125351598342156,1
275,270,43,0.142976055558167,1
275,271,43,0.120180034838797,1
275,277,43,0.117332847875204,1
275,278,43,0.142122397630532,1
275,279,43,0.127058843536229,1
275,280,43,0.15170695312779,1
275,281,43,0.216827040890881,1
275,282,43,0.264963097425115,1
276,267,43,0.138826229417689,1
276,268,43,0.128562926010472,1
276,269,43,0.116250518535421,1
276,270,43,0.115218676621291,1
276,278,43,0.122798562167109,1
276,279,43,0.130613831938842,1
276,280,43,0.153093031402119,1
276,281,43,0.195851358612267,1
276,282,43,0.256613440570023,1
276,283,43,0.291277068302715,2
277,266,43,0.149722963353501,1
277,267,43,0.233617931513095,1
277,268,43,0.191279261155213,1
277,269,43,0.137412475507651,1
277,279,43,0.128475836084488,1
277,280,43,0.178040815132501,1
277,281,43,0.224727009884748,1
277,282,43,0.278175987648046,2
277,283,43,0.330878359198001,2
277,284,43,0.233241519313731,2
278,266,43,0.160854457341317,1
278,267,43,0.258033071136323,1
278,268,43,0.218786240361695,1
278,269,43,0.148389221472826,1
278,280,43,0.197959723871114,1
278,281,43,0.286209223660497,2
278,282,43,0.325766492629707,2
278,283,43,0.340109208294042,2
278,284,43,0.22874181425357,2
279,266,43,0.12303279226013,1
279,267,43,0.177516509046659,1
279,268,43,0.172055953022175,1
279,269,43,0.136244940540487,1
279,280,43,0.155800485847551,1
279,281,43,0.245244972479348,1
279,282,43,0.268768297128263,2
279,283,43,0.248107834451931,2
280,267,43,0.172392594744182,1
280,268,43,0.16667482018374,1
280,269,43,0.131516104770394,1
280,280,43,0.115357478767017,1
280,281,43,0.179002702461054,1
280,282,43,0.188616982768749,1
280,283,43,0.162740369373402,1
281,267,43,0.239215805798156,1
281,268,43,0.196319265285595,1
281,269,43,0.124649049385488,1
281,281,43,0.153817720867354,1
281,282,43,0.159290878138735,1
281,283,43,0.147134796786404,1
282,267,43,0.238263834590993,1
282,268,43,0.178933478041185,1
282,281,43,0.164804712706174,1
282,282,43,0.16690870874764,1
282,283,43,0.153295746601032,1
283,268,43,0.124615402878586,1
283,281,43,0.167266595936378,1
283,282,43,0.162886355407546,1
283,283,43,0.138073982085408,1
284,281,43,0.128989860966086,1
284,282,43,0.117435777686306,1
285,271,43,0.120206921424466,1
285,274,43,0.115355877113206,1
285,275,43,0.127738368719362,1
285,281,43,0.12063788406834,1
286,269,43,0.130672068542492,1
286,270,43,0.116929454875241,1
286,271,43,0.120422273200874,1
286,274,43,0.141383022413072,1
286,275,43,0.163120408847573,1
286,276,43,0.124861103639344,1
286,280,43,0.131545452721111,1
286,281,43,0.137688725459484,1
287,274,43,0.15106459573457,1
287,275,43,0.155976184915266,1
287,276,43,0.11434476248369,1
287,280,43,0.143112549438107,1
287,281,43,0.136484270016598,1
288,273,43,0.122617963923031,1
288,274,43,0.137630924599886,1
288,275,43,0.120794975687366,1
288,279,43,0.114405130700133,1
288,280,43,0.135259711463008,1
288,281,43,0.116306470427017,1
289,270,43,0.195125338361144,1
289,271,43,0.165890975519287,1
289,272,43,0.126244744102357,1
289,273,43,0.116666948526332,1
289,279,43,0.134318398319809,1
289,280,43,0.142276674578522,1
290,270,43,0.342959304143601,3
290,271,43,0.297254110573845,1
290,272,43,0.202917831673533,1
290,273,43,0.150685863492553,1
290,274,43,0.12357246715644,1
290,279,43,0.15799872037282,1
290,280,43,0.171273003399557,1
290,281,43,0.121616164794726,1
291,272,43,0.25023763360737,1
291,273,43,0.229724358205541,1
291,274,43,0.225301603189515,1
291,275,43,0.193620455059997,1
291,276,43,0.13523086991754,1
291,278,43,0.117202713503044,1
291,279,43,0.157874427326324,1
291,280,43,0.184613437084071,1
291,281,43,0.15422362233983,1
292,273,43,0.229070718574445,1
292,274,43,0.300937419711214,1
292,275,43,0.28217724862067,1
292,276,43,0.194794679287196,1
292,277,43,0.12657778210329,1
292,278,43,0.120559685676382,1
292,279,43,0.136984987039323,1
292,280,43,0.177596897935741,1
292,281,43,0.203084309454968,1
293,274,43,0.204726546347292,1
293,275,43,0.199415580078027,1
293,276,43,0.148103491143655,1
293,280,43,0.156077760386749,1
269,271,44,0.114295005223747,1
270,276,44,0.120484431500988,1
270,277,44,0.132750897420763,1
271,275,44,0.117113044443349,1
271,280,44,0.131801281586851,1
271,281,44,0.170946124699678,1
272,275,44,0.142176535884724,1
272,279,44,0.11496036283677,1
272,280,44,0.163220276673448,1
272,281,44,0.188444887422109,1
272,282,44,0.179968570370403,1
273,270,44,0.11713583267956,1
273,275,44,0.130098735362415,1
273,276,44,0.123213649595267,1
273,280,44,0.153823373763158,1
273,281,44,0.190012541420416,1
273,282,44,0.193965375918984,1
274,268,44,0.117631815402049,1
274,269,44,0.166965850102727,1
274,270,44,0.195678168017065,1
274,271,44,0.161957737726174,1
274,276,44,0.116123681685814,1
274,277,44,0.145856099978623,1
274,278,44,0.143044808903386,1
274,279,44,0.114954368411844,1
274,280,44,0.138425344890239,1
274,281,44,0.199217069220369,1
274,282,44,0.229270619102322,1
275,268,44,0.120692304967322,1
275,269,44,0.14891588293192,1
275,270,44,0.177075159206744,1
275,271,44,0.178894001985485,1
275,272,44,0.115089484398432,1
275,277,44,0.156023810562417,1
275,278,44,0.187335212198874,1
275,279,44,0.139416827483701,1
275,280,44,0.142465445967785,1
275,281,44,0.206988623264549,1
275,282,44,0.247320032760415,1
276,267,44,0.130979009007795,1
276,268,44,0.149487225821599,1
276,269,44,0.140349001778684,1
276,270,44,0.13798844670577,1
276,271,44,0.149281813720313,1
276,278,44,0.15722556910293,1
276,279,44,0.148158701092676,1
276,280,44,0.154180012604073,1
276,281,44,0.200472789362079,1
276,282,44,0.248792353026358,2
276,283,44,0.275486881560244,2
277,267,44,0.207120995241298,1
277,268,44,0.218929282179274,1
277,269,44,0.173442101957701,1
277,270,44,0.126366764213665,1
277,279,44,0.148854419466915,1
277,280,44,0.196605337143888,1
277,281,44,0.256345705292495,2
277,282,44,0.291190673211841,2
277,283,44,0.330248391068085,2
277,284,44,0.232609737546411,2
278,267,44,0.231266797933188,1
278,268,44,0.238765105126432,1
278,269,44,0.182562696031827,1
278,270,44,0.119027892235832,1
278,279,44,0.129229331764592,1
278,280,44,0.230308490771977,2
278,281,44,0.33450749475058,2
278,282,44,0.318412004527216,2
278,283,44,0.296969534377568,2
279,267,44,0.172857180341226,1
279,268,44,0.191535337335144,1
279,269,44,0.160655805161263,1
279,280,44,0.180690810247456,1
279,281,44,0.281400375861042,2
279,282,44,0.248032462507875,2
279,283,44,0.192854888091977,1
280,267,44,0.168386034181742,1
280,268,44,0.190966502917978,1
280,269,44,0.149448209063684,1
280,272,44,0.134734392566668,1
280,273,44,0.119871692926409,1
280,280,44,0.139231424278189,1
280,281,44,0.230843136946394,1
280,282,44,0.211262824889587,1
280,283,44,0.154268021125625,1
281,268,44,0.224041855359543,1
281,269,44,0.143481777749053,1
281,272,44,0.123719018480164,1
281,273,44,0.125446084140151,1
281,280,44,0.131387265853523,1
281,281,44,0.229855104974746,1
281,282,44,0.212255685376401,1
281,283,44,0.157402822716991,1
282,268,44,0.196255046033886,1
282,269,44,0.121424826048619,1
282,273,44,0.121535552145184,1
282,280,44,0.130571623650171,1
282,281,44,0.215137037029011,1
282,282,44,0.184574997392602,1
282,283,44,0.141982029161594,1
283,273,44,0.123115724952325,1
283,274,44,0.123261098589423,1
283,275,44,0.116611043742202,1
283,280,44,0.129321733057258,1
283,281,44,0.192293437769955,1
283,282,44,0.157866324842338,1
283,283,44,0.126606788524885,1
284,274,44,0.121559294307562,1
284,275,44,0.129610113181338,1
284,276,44,0.127808476404201,1
284,277,44,0.134446035996321,1
284,278,44,0.117139589499897,1
284,280,44,0.115232149356291,1
284,281,44,0.158265195525658,1
284,282,44,0.132096810268749,1
285,270,44,0.115349741365885,1
285,271,44,0.133854189582486,1
285,272,44,0.116514438108281,1
285,274,44,0.134689664028617,1
285,275,44,0.171468440495122,1
285,276,44,0.149231396955859,1
285,280,44,0.129349761998954,1
285,281,44,0.15881373840226,1
285,282,44,0.118584964295839,1
286,269,44,0.132653938480854,1
286,270,44,0.119736824254013,1
286,271,44,0.121621982566658,1
286,274,44,0.168071603629498,1
286,275,44,0.226221588427919,1
286,276,44,0.17521165855115,1
286,280,44,0.174354444009904,1
286,281,44,0.183747225017003,1
287,273,44,0.117953889140495,1
287,274,44,0.173256345446201,1
287,275,44,0.202815043184826,1
287,276,44,0.150531916296818,1
287,279,44,0.120807612264862,1
287,280,44,0.18998394718914,1
287,281,44,0.179146886634661,1
288,273,44,0.137291279776982,1
288,274,44,0.159394938528998,1
288,275,44,0.157493657686445,1
288,276,44,0.122820620237612,1
288,279,44,0.13346915671702,1
288,280,44,0.161775855803673,1
288,281,44,0.134297906572518,1
289,271,44,0.15396615648968,1
289,272,44,0.144010594374671,1
289,273,44,0.138897479458554,1
289,274,44,0.126948105662798,1
289,275,44,0.117438615911074,1
289,278,44,0.118590099009528,1
289,279,44,0.172874115474906,1
289,280,44,0.172116827643866,1
289,281,44,0.116605708821787,1
290,272,44,0.214263853057119,1
290,273,44,0.189468049785807,1
290,274,44,0.148317488580444,1
290,275,44,0.122565391992051,1
290,278,44,0.13131487345663,1
290,279,44,0.206302667912439,1
290,280,44,0.208265141352073,1
290,281,44,0.136266009354224,1
291,273,44,0.267942220621406,1
291,274,44,0.243707596804192,1
291,275,44,0.204890339003219,1
291,276,44,0.141517879308602,1
291,278,44,0.13138840820955,1
291,279,44,0.194575558913585,1
291,280,44,0.218579132391668,1
291,281,44,0.180773154096338,1
292,274,44,0.272346533064871,1
292,275,44,0.2664149494975,1
292,276,44,0.182721636618856,1
292,278,44,0.11907511746953,1
292,279,44,0.162150018621581,1
292,280,44,0.215325113583164,1
293,276,44,0.130207412284251,1
270,276,45,0.127681498232198,1
270,277,45,0.125829574236136,1
270,280,45,0.122204336826289,1
271,275,45,0.125592470587748,1
271,276,45,0.124460878616405,1
271,280,45,0.157679190437486,1
271,281,45,0.209115760848213,1
272,275,45,0.159027994930106,1
272,276,45,0.127455594383622,1
272,279,45,0.120465470746311,1
272,280,45,0.180623328803794,1
272,281,45,0.223707533680189,1
272,282,45,0.221312731480195,1
273,269,45,0.118727240617112,1
273,275,45,0.146979624796578,1
273,276,45,0.141186937589863,1
273,280,45,0.165274786322894,1
273,281,45,0.234222744256681,1
273,282,45,0.241385552083945,1
274,268,45,0.120148873250676,1
274,269,45,0.173464419119262,1
274,270,45,0.190631133097526,1
274,271,45,0.180843308888642,1
274,272,45,0.123111497057338,1
274,276,45,0.131946407909758,1
274,277,45,0.157597223448325,1
274,278,45,0.145260390752654,1
274,280,45,0.140141175419815,1
274,281,45,0.217474485890325,1
274,282,45,0.249903947878793,1
275,268,45,0.125705587388163,1
275,269,45,0.166160029805835,1
275,270,45,0.198734406133618,1
275,271,45,0.238951627134239,1
275,272,45,0.176602541786912,1
275,277,45,0.168045305887142,1
275,278,45,0.201716049579288,1
275,279,45,0.143975711296813,1
275,280,45,0.134046246717434,1
275,281,45,0.187540671407625,1
275,282,45,0.222728734771688,1
275,283,45,0.222244611353521,1
276,268,45,0.168650259953124,1
276,269,45,0.171426067330323,1
276,270,45,0.164076466627329,1
276,271,45,0.202693694354896,1
276,272,45,0.164208968149607,1
276,277,45,0.117245498858162,1
276,278,45,0.1766433132979,1
276,279,45,0.159512730745318,1
276,280,45,0.156858554842841,1
276,281,45,0.208389198861243,1
276,282,45,0.251691864606739,2
276,283,45,0.265801162781824,2
277,268,45,0.233547788497657,1
277,269,45,0.209134509619297,1
277,270,45,0.144166343430944,1
277,271,45,0.136752393930712,1
277,272,45,0.123061033185419,1
277,278,45,0.136038079884651,1
277,279,45,0.167997268049673,1
277,280,45,0.210339777665955,1
277,281,45,0.29111553680511,2
277,282,45,0.316937140458162,2
277,283,45,0.318131314696804,2
277,284,45,0.22807046221562,2
278,268,45,0.226585281611724,1
278,269,45,0.202397105755034,1
278,270,45,0.132051481110519,1
278,272,45,0.115720477115712,1
278,279,45,0.152671313598258,1
278,280,45,0.243444760703028,2
278,281,45,0.346157641928433,2
278,282,45,0.305926359349499,2
278,283,45,0.251825838237299,2
279,268,45,0.195540755541557,1
279,269,45,0.178216667299477,1
279,270,45,0.121355907827273,1
279,272,45,0.148146123399512,1
279,273,45,0.136523239667048,1
279,279,45,0.124690032880068,1
279,280,45,0.201973915842891,1
279,281,45,0.290147549059834,2
279,282,45,0.235499003253147,2
279,283,45,0.166399995232725,1
280,268,45,0.210425489698587,1
280,269,45,0.170814141359516,1
280,272,45,0.174807511831746,1
280,273,45,0.170477417199444,1
280,274,45,0.115687054369269,1
280,280,45,0.175058594620384,1
280,281,45,0.269378904090049,1
280,282,45,0.230610897143771,1
280,283,45,0.157711706365227,1
281,269,45,0.163959969866297,1
281,272,45,0.139764362806998,1
281,273,45,0.158525499600576,1
281,274,45,0.127074165239232,1
281,280,45,0.167698665605681,1
281,281,45,0.27939310322216,1
281,282,45,0.242419066313084,1
281,283,45,0.163086609241411,1
282,269,45,0.138271115049714,1
282,272,45,0.115119998258908,1
282,273,45,0.151829620966741,1
282,274,45,0.152149727968522,1
282,275,45,0.138466881897534,1
282,279,45,0.120792796967108,1
282,280,45,0.154859596671537,1
282,281,45,0.23191469045355,1
282,282,45,0.18847872235887,1
282,283,45,0.13623337565782,1
283,272,45,0.126882885377457,1
283,273,45,0.159374046368255,1
283,274,45,0.163199196082845,1
283,275,45,0.158653125500222,1
283,276,45,0.137617604964147,1
283,277,45,0.142889966665816,1
283,278,45,0.146313289703655,1
283,279,45,0.135003423299484,1
283,280,45,0.144947997598273,1
283,281,45,0.191276976443158,1
283,282,45,0.1543409434815,1
283,283,45,0.12679347540882,1
284,271,45,0.116883124683379,1
284,272,45,0.133918514825991,1
284,273,45,0.134777495897175,1
284,274,45,0.140426222690743,1
284,275,45,0.165612358417336,1
284,276,45,0.17085945874088,1
284,277,45,0.169530627813434,1
284,278,45,0.141721760417274,1
284,280,45,0.129690443186089,1
284,281,45,0.180545566155887,1
284,282,45,0.161245237317516,1
284,283,45,0.128761707736054,1
285,270,45,0.114517988409491,1
285,271,45,0.13411047774601,1
285,272,45,0.137870030315538,1
285,273,45,0.119518787352098,1
285,274,45,0.150029927372537,1
285,275,45,0.224309190223618,1
285,276,45,0.210030305174406,1
285,277,45,0.14268666262359,1
285,280,45,0.148208140377231,1
285,281,45,0.192602627616714,1
285,282,45,0.15953576629572,1
285,283,45,0.116445390341406,1
286,271,45,0.115574785503224,1
286,272,45,0.114387135648489,1
286,273,45,0.115274569628555,1
286,274,45,0.181250600031336,1
286,275,45,0.285008313054355,1
286,276,45,0.241276356979993,1
286,277,45,0.129726975025224,1
286,280,45,0.200211602022192,1
286,281,45,0.208696622178063,1
286,282,45,0.13534060675734,1
287,273,45,0.122621732520233,1
287,274,45,0.175857914087101,1
287,275,45,0.238006957584156,1
287,276,45,0.195926106382411,1
287,277,45,0.119489604277509,1
287,279,45,0.129229402425789,1
287,280,45,0.208918992966761,1
287,281,45,0.191940426203848,1
288,272,45,0.120434497588051,1
288,273,45,0.141012321993844,1
288,274,45,0.167296202978153,1
288,275,45,0.193499412428589,1
288,276,45,0.165061259960756,1
288,277,45,0.117530204599969,1
288,279,45,0.145046051786744,1
288,280,45,0.169284326432498,1
288,281,45,0.137816174706137,1
289,272,45,0.155562074967008,1
289,273,45,0.160436967432442,1
289,274,45,0.154195346083942,1
289,275,45,0.161046208277743,1
289,276,45,0.143672398106318,1
289,277,45,0.11399865216121,1
289,278,45,0.137877708832339,1
289,279,45,0.197667398496838,1
289,280,45,0.183125724453928,1
289,281,45,0.121789638034718,1
290,273,45,0.22987001448743,1
290,274,45,0.18773377668367,1
290,275,45,0.156376574814333,1
290,276,45,0.129345804971891,1
290,278,45,0.146831495372775,1
290,279,45,0.231368667826327,1
290,280,45,0.221123924760334,1
290,281,45,0.148476299621944,1
291,274,45,0.251944831693978,1
291,275,45,0.196324388222418,1
291,276,45,0.139737652874323,1
291,278,45,0.141026360018425,1
291,279,45,0.222135392695837,1
291,280,45,0.244197985515208,1
292,276,45,0.15131733906135,1
270,276,46,0.120049170300929,1
271,275,46,0.1223984313591,1
271,276,46,0.129071757294049,1
271,279,46,0.114217513443764,1
271,280,46,0.171052670008721,1
271,281,46,0.233941159384434,1
271,282,46,0.256997248641397,1
272,275,46,0.150669929392505,1
272,276,46,0.133807706291362,1
272,279,46,0.11882939315504,1
272,280,46,0.178659972099191,1
272,281,46,0.24305249684168,1
272,282,46,0.263384832470309,1
272,283,46,0.212104187768848,1
273,269,46,0.123390502795875,1
273,275,46,0.139827910777331,1
273,276,46,0.140816084071374,1
273,280,46,0.165977617924353,1
273,281,46,0.264844551489354,1
273,282,46,0.286867079409713,1
273,283,46,0.210308097895719,1
274,269,46,0.159190810106134,1
274,270,46,0.17289094461679,1
274,271,46,0.191530826795367,1
274,272,46,0.157568028596869,1
274,276,46,0.129822296980722,1
274,277,46,0.146469074090527,1
274,278,46,0.132553352266138,1
274,280,46,0.1412590355651,1
274,281,46,0.230580866134811,1
274,282,46,0.267605001832951,1
275,269,46,0.166553977759058,1
275,270,46,0.206497009759442,1
275,271,46,0.280718024230007,1
275,272,46,0.24939431576831,1
275,273,46,0.130439475433881,1
275,277,46,0.153028765042945,1
275,278,46,0.184256680474493,1
275,279,46,0.147967491892099,1
275,280,46,0.13284172061335,1
275,281,46,0.176517925002843,1
275,282,46,0.219354285728822,1
276,269,46,0.18886566307667,1
276,270,46,0.183858351527021,1
276,271,46,0.237148400480157,1
276,272,46,0.228388390497143,1
276,273,46,0.139349558023631,1
276,277,46,0.116190998253349,1
276,278,46,0.176172474184874,1
276,279,46,0.173606518787541,1
276,280,46,0.166555002346423,1
276,281,46,0.221199249596925,2
276,282,46,0.27487872418664,2
277,269,46,0.221537669625738,1
277,270,46,0.154836360914409,1
277,271,46,0.148445503116677,1
277,272,46,0.157009334061552,1
277,273,46,0.127334304438023,1
277,278,46,0.152670230126562,1
277,279,46,0.186707622995942,1
277,280,46,0.224810083899337,2
277,281,46,0.319508948958025,2
277,282,46,0.347620116734183,2
277,283,46,0.300307004060381,2
278,269,46,0.195699236830802,1
278,270,46,0.134825474850314,1
278,271,46,0.11902997674116,1
278,272,46,0.144256848648143,1
278,273,46,0.140873920261571,1
278,274,46,0.118900101460058,1
278,276,46,0.132099436509925,1
278,277,46,0.116593437327145,1
278,278,46,0.129981590873739,1
278,279,46,0.175722079711672,1
278,280,46,0.241263213997248,2
278,281,46,0.324324038496597,2
278,282,46,0.295263325547726,2
278,283,46,0.217070256732858,2
279,269,46,0.176976315968234,1
279,270,46,0.124540619777843,1
279,271,46,0.122958868870624,1
279,272,46,0.182440240176468,1
279,273,46,0.189660142251354,1
279,274,46,0.138296894609954,1
279,279,46,0.164496629884844,1
279,280,46,0.225181573368605,1
279,281,46,0.279364414775954,2
279,282,46,0.238674917884622,2
280,269,46,0.17988897053136,1
280,270,46,0.115656069434142,1
280,271,46,0.117051333664153,1
280,272,46,0.193948393677839,1
280,273,46,0.217644025656987,1
280,274,46,0.154428975556784,1
280,279,46,0.160839559605499,1
280,280,46,0.222312069243451,1
280,281,46,0.282692038998574,1
280,282,46,0.24698524000641,1
281,272,46,0.141149569593224,1
281,273,46,0.177679771743605,1
281,274,46,0.155784198441515,1
281,275,46,0.12066992892143,1
281,278,46,0.116492486029575,1
281,279,46,0.143116636010699,1
281,280,46,0.199079326992606,1
281,281,46,0.276477033367819,1
281,282,46,0.239496589843499,1
282,272,46,0.118698728823899,1
282,273,46,0.164640295876335,1
282,274,46,0.183611402418441,1
282,275,46,0.171080168991436,1
282,276,46,0.133297084924113,1
282,277,46,0.130057057032725,1
282,278,46,0.140192616771633,1
282,279,46,0.144231151525966,1
282,280,46,0.16533457747289,1
282,281,46,0.211676404878864,1
282,282,46,0.174177190395843,1
283,272,46,0.136017800120953,1
283,273,46,0.177040582327408,1
283,274,46,0.193035827865177,1
283,275,46,0.19034236433686,1
283,276,46,0.168802593718182,1
283,277,46,0.169366564289583,1
283,278,46,0.171743606975259,1
283,279,46,0.15346825413799,1
283,280,46,0.1472147970389,1
283,281,46,0.171708087946622,1
283,282,46,0.145486047287039,1
284,271,46,0.120466000705293,1
284,272,46,0.148711683847858,1
284,273,46,0.155120242275577,1
284,274,46,0.161624994146897,1
284,275,46,0.196298573331578,1
284,276,46,0.207577772776012,1
284,277,46,0.184329496838571,1
284,278,46,0.148119649004162,1
284,279,46,0.120323712607154,1
284,280,46,0.133853753838434,1
284,281,46,0.182150906126222,1
284,282,46,0.179859351712719,1
285,271,46,0.127992654815622,1
285,272,46,0.152463428355057,1
285,273,46,0.140348495373435,1
285,274,46,0.167260966594306,1
285,275,46,0.258023084353736,1
285,276,46,0.256222660593824,1
285,277,46,0.160765824645853,1
285,280,46,0.15850700992055,1
285,281,46,0.213765196985989,1
285,282,46,0.206704706572782,1
286,272,46,0.129625093355219,1
286,273,46,0.133999115698666,1
286,274,46,0.184918092837319,1
286,275,46,0.29792579236405,1
286,276,46,0.274492843386804,1
286,277,46,0.145136121259891,1
286,279,46,0.118609448400791,1
286,280,46,0.205406660373737,1
286,281,46,0.218942024748566,1
287,273,46,0.134468023405627,1
287,274,46,0.170141694073005,1
287,275,46,0.240378677126283,1
287,276,46,0.225448507819227,1
287,277,46,0.137056460840648,1
287,279,46,0.133831672214199,1
287,280,46,0.201906434399228,1
287,281,46,0.182618082633842,1
288,273,46,0.144199777954253,1
288,274,46,0.168125894982951,1
288,275,46,0.212510654530904,1
288,276,46,0.201680083029734,1
288,277,46,0.141380455056228,1
288,278,46,0.127542024805095,1
288,279,46,0.15552363527554,1
288,280,46,0.17001614090182,1
288,281,46,0.132948171707464,1
289,273,46,0.178237865658743,1
289,274,46,0.192646178468139,1
289,275,46,0.215597960020648,1
289,276,46,0.187415695302886,1
289,277,46,0.140558241361504,1
289,278,46,0.158665361664265,1
289,279,46,0.21136436503047,1
289,280,46,0.188020873129327,1
290,274,46,0.24427060167256,1
290,275,46,0.215618687305264,1
290,276,46,0.163049900749282,1
290,277,46,0.128229676025946,1
290,278,46,0.164441973448537,1
290,279,46,0.240646435957543,1
290,280,46,0.224715939630465,1
270,281,47,0.213574576628724,1
270,282,47,0.198568682071624,1
271,280,47,0.173591903696513,1
271,281,47,0.24679063906835,1
271,282,47,0.272637586537591,1
271,283,47,0.230058303025175,1
272,280,47,0.162799830771143,1
272,281,47,0.24122842513432,1
272,282,47,0.288721347002161,1
272,283,47,0.262210726011772,1
273,280,47,0.154719251756331,1
273,281,47,0.253538830542106,1
273,282,47,0.292464576835055,1
273,283,47,0.235559960312903,1
274,270,47,0.169254672283258,1
274,271,47,0.210609091043561,1
274,280,47,0.141511920214275,1
274,281,47,0.224575418062265,1
274,282,47,0.260308102606465,1
274,283,47,0.215487422353943,1
275,270,47,0.211192328568162,1
275,271,47,0.305701915832339,1
275,272,47,0.310036626996214,1
275,278,47,0.147193021613188,1
275,280,47,0.146821473259589,1
275,281,47,0.189820719822793,1
275,282,47,0.234756236298205,1
276,270,47,0.192912524075448,1
276,271,47,0.248186833670795,1
276,272,47,0.28554734022302,1
276,278,47,0.159389097203333,1
276,279,47,0.194097924548727,1
276,280,47,0.190931195872934,1
276,281,47,0.241637129500965,2
276,282,47,0.29213072623035,2
277,270,47,0.157351558018166,1
277,271,47,0.154293176511954,1
277,272,47,0.194140015068736,1
277,279,47,0.208361829424058,1
277,280,47,0.238754105533346,2
277,281,47,0.315482297061747,2
277,282,47,0.33453509972509,2
277,283,47,0.25719514710201,2
278,272,47,0.167647377353124,1
278,279,47,0.19445211380146,1
278,280,47,0.234334506717477,1
278,281,47,0.285092446986908,2
278,282,47,0.272756744870397,2
279,272,47,0.194750680914853,1
279,273,47,0.225709977803905,1
279,279,47,0.198261753383187,1
279,280,47,0.239650136625781,1
279,281,47,0.266629594661933,1
280,272,47,0.188264925128808,1
280,273,47,0.235633235974765,1
280,280,47,0.251075416319288,1
280,281,47,0.267827678820173,1
281,273,47,0.172859841913,1
281,274,47,0.169431007301751,1
281,280,47,0.214274946865135,1
281,281,47,0.233470438040069,1
282,273,47,0.151766932707646,1
282,274,47,0.183895907953521,1
282,275,47,0.182036505647384,1
282,279,47,0.161489760391648,1
282,280,47,0.174558207349914,1
282,281,47,0.182694408504066,1
283,273,47,0.165175012711949,1
283,274,47,0.189744664820494,1
283,275,47,0.198855778517281,1
283,276,47,0.190796645175927,1
283,277,47,0.190717457527203,1
283,278,47,0.17777393956621,1
283,279,47,0.15444806585699,1
283,280,47,0.149177494238993,1
283,281,47,0.155932068774261,1
284,272,47,0.155083898866302,1
284,273,47,0.161549975508829,1
284,274,47,0.1752304190991,1
284,275,47,0.218350025235469,1
284,276,47,0.223073914721733,1
284,277,47,0.177589996692114,1
284,280,47,0.133107548038544,1
284,281,47,0.171275664971332,1
285,273,47,0.159427489787337,1
285,274,47,0.18745918726998,1
285,275,47,0.274268564745772,1
285,276,47,0.27220478670258,1
285,277,47,0.1686673364092,1
285,280,47,0.152678203065019,1
285,281,47,0.213933464851095,1
286,273,47,0.161924362087196,1
286,274,47,0.191083517861125,1
286,275,47,0.278813092558914,1
286,276,47,0.274307428404426,1
286,277,47,0.159663933931215,1
286,280,47,0.180096490691706,1
287,274,47,0.173127954050248,1
287,275,47,0.227610434265819,1
287,276,47,0.23894003869784,1
287,280,47,0.171350082989221,1
288,274,47,0.176299334588213,1
288,275,47,0.219444025449714,1
288,276,47,0.223993193348162,1
288,277,47,0.165432266578507,1
288,279,47,0.165017909316057,1
288,280,47,0.165568418929325,1
289,275,47,0.27504310568588,1
289,276,47,0.223888685436982,1
289,277,47,0.167552255604352,1
289,278,47,0.181189525202918,1
289,279,47,0.212012304658297,1
270,281,48,0.209905988574179,1
270,282,48,0.188280293939276,1
271,280,48,0.173048095120147,1
271,281,48,0.256534135152636,1
271,282,48,0.284677595096075,1
271,283,48,0.24192495611233,1
272,280,48,0.149008248893987,1
272,281,48,0.23214942695182,1
272,282,48,0.303225335073043,1
272,283,48,0.322925747611958,4
272,284,48,0.239942367785127,1
273,281,48,0.214742040934691,1
273,282,48,0.272152544523856,1
273,283,48,0.275729131699188,1
274,282,48,0.249905926392325,1
277,281,48,0.291286984424105,2
277,282,48,0.292827374977023,2
271,281,49,0.261466804923936,1
271,282,49,0.284998773792685,1
271,283,49,0.236547450548703,4
272,281,49,0.21778626664766,1
272,282,49,0.291782366526415,4
272,283,49,0.342356940988196,4
272,284,49,0.280605319619911,4
273,282,49,0.234840605768083,1
273,283,49,0.29581198619299,4
271,283,50,0.223963727628783,4
272,282,50,0.273513926709641,4
272,283,50,0.32432761866394,4
272,284,50,0.290408383093734,4
273,283,50,0.298848486281694,4
272,283,51,0.281806630639506,4
