x,y,z,signal,mito.p
328,33,13,0.298075075920746,1
328,34,13,0.305959452343686,1
329,32,13,0.195577369818756,1
329,33,13,0.321271121456329,1
329,34,13,0.356338695701698,2
329,35,13,0.268622075556794,1
330,32,13,0.200271381395321,1
330,33,13,0.321874520975965,2
330,34,13,0.402016519834268,2
330,35,13,0.30286296089826,2
330,36,13,0.228690679100274,1
331,32,13,0.21906799011007,2
331,33,13,0.362031679958666,2
331,34,13,0.484057844575326,2
331,35,13,0.375354778096046,2
331,36,13,0.3007549489454,2
331,37,13,0.294425778373132,1
332,32,13,0.21932872992904,2
332,33,13,0.368267742626292,2
332,34,13,0.493105775384635,2
332,35,13,0.406838769707526,2
332,36,13,0.369343323821708,2
332,37,13,0.350093305755995,2
332,38,13,0.221666861848597,1
333,28,13,0.264789671292588,1
333,32,13,0.206925452153937,1
333,33,13,0.318977270553906,2
333,34,13,0.427025213516941,2
333,35,13,0.394876841772337,2
333,36,13,0.374900473703247,2
333,37,13,0.335367017557612,2
333,38,13,0.203542052692715,1
334,28,13,0.245404289926097,1
334,29,13,0.226697868453158,1
334,33,13,0.270856712375668,2
334,34,13,0.373944945882473,2
334,35,13,0.380731176634245,2
334,36,13,0.320356671345066,2
334,37,13,0.265066168558612,1
335,27,13,0.256626983966221,1
335,28,13,0.288147342540707,3
335,29,13,0.298399505032443,3
335,30,13,0.228573193082476,1
335,32,13,0.220347899935077,1
335,33,13,0.27985536877655,2
335,34,13,0.369316872980091,2
335,35,13,0.365518927826559,2
335,36,13,0.256138126247818,1
336,27,13,0.286386795249947,3
336,28,13,0.325224379922082,3
336,29,13,0.322985432770157,3
336,30,13,0.250331448123988,1
336,31,13,0.220028087354953,1
336,32,13,0.286890680249696,2
336,33,13,0.351555050396037,2
336,34,13,0.368188837622358,2
336,35,13,0.322029410321001,2
336,36,13,0.217566675199399,1
337,26,13,0.26685644065981,1
337,27,13,0.345261398852406,3
337,28,13,0.333379906913765,3
337,29,13,0.269558171548241,3
337,30,13,0.235960656410492,1
337,31,13,0.255503117619144,2
337,32,13,0.358062028095081,2
337,33,13,0.442244080923465,2
337,34,13,0.409221889256191,2
337,35,13,0.33467178203489,2
337,36,13,0.226814059015667,1
338,25,13,0.228513178172021,1
338,26,13,0.30546364627419,3
338,27,13,0.357312995847289,3
338,28,13,0.308315909067141,3
338,29,13,0.228096324213925,1
338,30,13,0.241481015361839,1
338,31,13,0.281062097154624,2
338,32,13,0.354163791148488,2
338,33,13,0.433912513334946,2
338,34,13,0.379643323944187,2
338,35,13,0.297358594931293,2
338,36,13,0.204240962597709,1
339,26,13,0.283373354265378,3
339,27,13,0.288801029279268,3
339,28,13,0.247910454173434,3
339,29,13,0.205809806059509,1
339,30,13,0.234523007238816,1
339,31,13,0.259130910608969,1
339,32,13,0.289886220397551,2
339,33,13,0.356602992134278,2
339,34,13,0.291474495688678,2
339,35,13,0.211420328698932,1
340,27,13,0.23853418433283,1
340,28,13,0.241412379785282,1
340,29,13,0.220055786544393,1
340,32,13,0.241334157839591,1
340,33,13,0.322234657546159,2
340,34,13,0.256315956928326,1
341,28,13,0.257416528633943,1
341,29,13,0.252436515860283,1
341,33,13,0.315651813274676,1
341,34,13,0.257025677996546,1
342,33,13,0.273505894886852,1
343,33,13,0.247030840032564,1
343,34,13,0.232323701018718,1
344,32,13,0.247340571615171,1
344,33,13,0.256090170848412,1
344,34,13,0.264156923822236,1
345,31,13,0.248680496350632,1
345,32,13,0.274432592939024,1
345,33,13,0.246266780503426,1
345,34,13,0.231171358209027,1
346,31,13,0.268156842232106,1
346,32,13,0.277264104893627,1
346,33,13,0.226106080923653,1
347,30,13,0.300865109752385,1
347,31,13,0.273212556702078,4
347,32,13,0.265790775585784,4
347,33,13,0.244822442071715,4
348,29,13,0.277069150649579,1
348,30,13,0.323741743121297,4
348,31,13,0.304261675750085,4
348,32,13,0.362644924938494,4
348,33,13,0.378920671876815,4
348,34,13,0.260603230874911,4
349,30,13,0.25645848056379,4
349,31,13,0.346295949445776,4
349,32,13,0.520836668149296,4
349,33,13,0.538559815504555,4
349,34,13,0.355695066406922,4
349,35,13,0.201912841014472,4
350,30,13,0.179375840691598,1
350,31,13,0.292094335713611,4
350,32,13,0.431713442652173,4
350,33,13,0.431258949829513,4
350,34,13,0.339634200170359,4
350,35,13,0.239479748924749,1
351,31,13,0.186360064118913,1
351,32,13,0.238400705330652,4
351,33,13,0.253555647907124,4
351,34,13,0.284807022856259,1
351,35,13,0.265612850690346,1
352,34,13,0.236223892925109,1
352,35,13,0.263103224044329,1
353,35,13,0.244549124559581,1
353,36,13,0.252708255272338,1
354,36,13,0.247268214548877,1
327,34,14,0.178201439811404,1
328,33,14,0.229557291580794,1
328,34,14,0.256298385843868,1
328,35,14,0.224698933835587,1
329,33,14,0.259957835050196,1
329,34,14,0.299123735199894,2
329,35,14,0.232693989247627,1
329,36,14,0.197962691641412,1
330,32,14,0.163773801164478,1
330,33,14,0.258428679627689,2
330,34,14,0.338101064167057,2
330,35,14,0.269315732979437,2
330,36,14,0.209668543396669,1
330,37,14,0.224307541462342,1
331,32,14,0.191252869197927,2
331,33,14,0.298314947132705,2
331,34,14,0.419923621840491,2
331,35,14,0.340819023577192,2
331,36,14,0.264417263227753,2
331,37,14,0.267977739650042,1
331,38,14,0.187264574555053,1
332,28,14,0.27821475709177,1
332,32,14,0.202981261875203,2
332,33,14,0.324228645879901,2
332,34,14,0.448564348184841,2
332,35,14,0.36620415301296,2
332,36,14,0.304183642234254,2
332,37,14,0.287671698466247,2
332,38,14,0.18033373566249,1
333,27,14,0.236909118111511,1
333,28,14,0.280200383850468,1
333,29,14,0.231668436180078,1
333,32,14,0.197560264344482,2
333,33,14,0.295737179538515,2
333,34,14,0.395511120235304,2
333,35,14,0.344653005941476,2
333,36,14,0.302644240938102,2
333,37,14,0.261218501475736,2
333,38,14,0.159041773863629,1
334,27,14,0.241816703157679,1
334,28,14,0.263156785232074,3
334,29,14,0.245768006663634,3
334,30,14,0.200441839757551,1
334,32,14,0.200873085046216,1
334,33,14,0.246078656841808,2
334,34,14,0.317500168880262,2
334,35,14,0.310621324852231,2
334,36,14,0.265238770310501,2
334,37,14,0.213595563004397,1
335,26,14,0.234237253355912,1
335,27,14,0.260630765188224,3
335,28,14,0.312200343526478,3
335,29,14,0.330685948757065,3
335,30,14,0.253115569968765,3
335,31,14,0.210240522237126,1
335,32,14,0.214895163749788,1
335,33,14,0.24839643833647,2
335,34,14,0.30248760861686,2
335,35,14,0.298234581797355,2
335,36,14,0.221737570153615,2
336,26,14,0.22010506095282,3
336,27,14,0.277960117689522,3
336,28,14,0.352273274361696,3
336,29,14,0.370277158654833,3
336,30,14,0.277269522252106,3
336,31,14,0.236424829817216,1
336,32,14,0.272746828749008,2
336,33,14,0.323541159535177,2
336,34,14,0.322224529441176,2
336,35,14,0.281418959755998,2
336,36,14,0.196065085181131,1
337,25,14,0.189550782271275,1
337,26,14,0.260775973949195,3
337,27,14,0.344933813540551,3
337,28,14,0.353012626025424,3
337,29,14,0.3008117369945,3
337,30,14,0.255332800579309,3
337,31,14,0.276104578195518,2
337,32,14,0.351814777404509,2
337,33,14,0.419781263081154,2
337,34,14,0.373296087659078,2
337,35,14,0.303564579482494,2
337,36,14,0.204666437221907,2
338,25,14,0.231071678813012,3
338,26,14,0.341096651422377,3
338,27,14,0.409038735432134,3
338,28,14,0.335349564241816,3
338,29,14,0.240453366012096,3
338,30,14,0.254092979207048,2
338,31,14,0.303788952338457,2
338,32,14,0.344874811440594,2
338,33,14,0.397315100608826,2
338,34,14,0.347698362233606,2
338,35,14,0.279576869443262,2
338,36,14,0.188538113095414,1
339,25,14,0.244786357753498,3
339,26,14,0.338276822119103,3
339,27,14,0.355829369789738,3
339,28,14,0.281160834401338,3
339,29,14,0.22134038356217,3
339,30,14,0.246416652903436,1
339,31,14,0.27120401216164,2
339,32,14,0.269443111564892,2
339,33,14,0.31020536593597,2
339,34,14,0.269430769409053,2
339,35,14,0.209902384853103,1
340,26,14,0.239160430973008,3
340,27,14,0.255597638747737,3
340,28,14,0.26537750179503,3
340,29,14,0.243951142398424,1
340,30,14,0.209417389946834,1
340,31,14,0.203806278464097,1
340,32,14,0.223297557411987,1
340,33,14,0.28577899118233,2
340,34,14,0.246818267596593,1
340,35,14,0.19060174981621,1
341,27,14,0.213194395832158,1
341,28,14,0.283056109042099,1
341,29,14,0.274476591311367,1
341,30,14,0.185907914892639,1
341,32,14,0.208137079708375,1
341,33,14,0.279309134165735,1
341,34,14,0.239247132262405,1
341,35,14,0.215863057280134,1
342,28,14,0.238150611798781,1
342,29,14,0.230430569767616,1
342,32,14,0.20235421440812,1
342,33,14,0.248285594471242,1
342,34,14,0.216027721424164,1
343,32,14,0.216843316520051,1
343,33,14,0.244120305305365,1
343,34,14,0.228584946395002,1
343,35,14,0.225061355117835,1
344,31,14,0.202459617361136,1
344,32,14,0.258623892962795,1
344,33,14,0.279109045207998,1
344,34,14,0.26718127018496,1
344,35,14,0.216146879756971,1
345,30,14,0.185710840812664,1
345,31,14,0.241595769146664,1
345,32,14,0.292694720355484,1
345,33,14,0.282451979356755,1
345,34,14,0.239062141247212,1
345,35,14,0.174136254008728,1
346,30,14,0.227538830918966,1
346,31,14,0.274740793529017,4
346,32,14,0.28635407911548,4
346,33,14,0.242782311975971,1
346,34,14,0.187868610025467,1
347,29,14,0.248357103603165,1
347,30,14,0.295816885369354,4
347,31,14,0.29142062830241,4
347,32,14,0.275063597433171,4
347,33,14,0.237791276055492,4
347,34,14,0.178197282577615,1
348,28,14,0.160293913837997,1
348,29,14,0.280117851571726,4
348,30,14,0.32743322540385,4
348,31,14,0.334420251725334,4
348,32,14,0.387635929768046,4
348,33,14,0.368494894822692,4
348,34,14,0.23060378391655,4
348,35,14,0.144859953746122,1
349,29,14,0.195695079597013,1
349,30,14,0.277427968210752,4
349,31,14,0.382548111560652,4
349,32,14,0.560313242030901,4
349,33,14,0.556702643265814,4
349,34,14,0.326798358097571,4
349,35,14,0.170476039306092,4
350,30,14,0.198436828276991,4
350,31,14,0.30952539323192,4
350,32,14,0.450473378205392,4
350,33,14,0.461322745585112,4
350,34,14,0.328662494703943,4
350,35,14,0.206865201706157,4
351,31,14,0.19698603612257,4
351,32,14,0.242067691731387,4
351,33,14,0.268688520636226,4
351,34,14,0.27994461386906,4
351,35,14,0.241217025127781,1
351,36,14,0.187755163472796,1
352,32,14,0.151886750544963,1
352,33,14,0.180892029784354,1
352,34,14,0.239343419920937,1
352,35,14,0.26237583767672,1
352,36,14,0.225649727356125,1
353,34,14,0.197193862481438,1
353,35,14,0.249887954894414,1
353,36,14,0.245443177138483,1
353,37,14,0.2067686785103,1
354,35,14,0.230868669192443,1
354,36,14,0.242438427481214,1
354,37,14,0.216421586939323,1
355,36,14,0.218204981350626,1
328,34,15,0.196100981069488,1
329,34,15,0.231852602814633,1
329,35,15,0.192497742845813,1
330,33,15,0.203231426068272,1
330,34,15,0.263497819725196,2
330,35,15,0.22623638017194,1
330,36,15,0.187001396924768,1
331,33,15,0.240719499635812,2
331,34,15,0.334570053464146,2
331,35,15,0.290133887894974,2
331,36,15,0.230923549389209,1
331,37,15,0.247749016890758,1
332,28,15,0.259763022128543,1
332,32,15,0.191119295980819,1
332,33,15,0.280874868534842,2
332,34,15,0.378757303188073,2
332,35,15,0.315150707615365,2
332,36,15,0.250075065745534,2
332,37,15,0.241878885011526,1
333,27,15,0.246749278714049,1
333,28,15,0.273222166624945,1
333,29,15,0.238228551099681,1
333,32,15,0.19698398694784,1
333,33,15,0.276757958735556,2
333,34,15,0.349249163536297,2
333,35,15,0.294072189740578,2
333,36,15,0.243497285526542,2
333,37,15,0.210360599165501,1
334,27,15,0.251654932354151,1
334,28,15,0.27340334193547,3
334,29,15,0.263556939593815,3
334,30,15,0.22060390545381,1
334,32,15,0.200820395346574,1
334,33,15,0.233088066746379,1
334,34,15,0.267246254932976,2
334,35,15,0.249476000112681,2
334,36,15,0.220212418865635,1
335,26,15,0.229976241821084,1
335,27,15,0.269568488083083,3
335,28,15,0.321514902587886,3
335,29,15,0.327644313954673,3
335,30,15,0.265135887606864,3
335,31,15,0.225854315076772,1
335,32,15,0.213521250978304,1
335,33,15,0.227533861081405,2
335,34,15,0.247692299502856,2
335,35,15,0.239525937794216,2
335,36,15,0.196144096176862,1
336,26,15,0.220107463433537,3
336,27,15,0.276171894763054,3
336,28,15,0.361311642355603,3
336,29,15,0.370108396161345,3
336,30,15,0.28394434384907,3
336,31,15,0.247796265678189,1
336,32,15,0.25233638894335,2
336,33,15,0.286436446518094,2
336,34,15,0.284022660009691,2
336,35,15,0.248925243185222,1
336,36,15,0.182490857147649,1
337,25,15,0.200773758956189,1
337,26,15,0.252738945785809,3
337,27,15,0.31894943004207,3
337,28,15,0.347081890392423,3
337,29,15,0.317252077415654,3
337,30,15,0.268310153477063,3
337,31,15,0.284211019208634,2
337,32,15,0.322273262113755,2
337,33,15,0.37087476395627,2
337,34,15,0.336719873292225,2
337,35,15,0.273109815320836,2
337,36,15,0.186325758107501,1
338,25,15,0.235688163278996,3
338,26,15,0.359660879012107,3
338,27,15,0.417344064162629,3
338,28,15,0.332597381258333,3
338,29,15,0.256885580395531,3
338,30,15,0.256585340967129,1
338,31,15,0.298693172969473,2
338,32,15,0.313585302998513,2
338,33,15,0.341156784101494,2
338,34,15,0.30929543814135,2
338,35,15,0.254431422789593,2
338,36,15,0.172530466517474,1
339,25,15,0.2416197704001,3
339,26,15,0.383991413628133,3
339,27,15,0.407939906702723,3
339,28,15,0.300598740591344,3
339,29,15,0.244218312386371,3
339,30,15,0.246572225306714,1
339,31,15,0.255218541422866,1
339,32,15,0.238501562413293,2
339,33,15,0.255448237422377,2
339,34,15,0.243656414543431,2
339,35,15,0.203561743613099,1
340,26,15,0.242600076747482,3
340,27,15,0.26390847905164,3
340,28,15,0.267529512120233,3
340,29,15,0.262619029964964,1
340,30,15,0.217577297932764,1
340,31,15,0.196947537546769,1
340,32,15,0.201265513783691,1
340,33,15,0.238657488122559,1
340,34,15,0.230574977701681,1
341,27,15,0.200555957591599,1
341,28,15,0.27066896557377,1
341,29,15,0.270359822834477,1
341,30,15,0.182350500455576,1
341,33,15,0.234819595838677,1
341,34,15,0.213538186111984,1
342,29,15,0.221767271410319,1
342,33,15,0.215965492462853,1
342,34,15,0.197575103195968,1
343,32,15,0.207772043961817,1
343,33,15,0.235017659175418,1
343,34,15,0.228047638648811,1
343,35,15,0.23017164358605,1
344,31,15,0.179270049101995,1
344,32,15,0.255659537956793,1
344,33,15,0.287072350188604,1
344,34,15,0.249896599114248,1
344,35,15,0.206301372457151,1
345,31,15,0.215197876320104,1
345,32,15,0.290528624898236,1
345,33,15,0.304633212326818,1
345,34,15,0.223781021325644,1
346,30,15,0.218577130324404,1
346,31,15,0.253314575454806,4
346,32,15,0.263440796138771,1
346,33,15,0.242225124879534,1
346,34,15,0.177700852334208,1
347,29,15,0.222716910797964,1
347,30,15,0.282126066359909,4
347,31,15,0.298002553978324,4
347,32,15,0.266544071059161,4
347,33,15,0.217895838611332,4
347,34,15,0.162669354869861,1
348,29,15,0.260792697099282,4
348,30,15,0.326701552256923,4
348,31,15,0.376625360642975,4
348,32,15,0.401747630423848,4
348,33,15,0.329491633196028,4
348,34,15,0.195126692700764,4
349,29,15,0.197761448550781,4
349,30,15,0.300837222133084,4
349,31,15,0.433259980729278,4
349,32,15,0.563331511530636,4
349,33,15,0.505375432835166,4
349,34,15,0.273704287975848,4
349,35,15,0.141503652854161,1
350,30,15,0.218990568991285,4
350,31,15,0.330590603247834,4
350,32,15,0.443498458502422,4
350,33,15,0.447518515353595,4
350,34,15,0.290569419962957,4
350,35,15,0.170204865183617,1
351,31,15,0.201335962997651,4
351,32,15,0.240440882533862,4
351,33,15,0.27778047337161,4
351,34,15,0.251249878816046,1
351,35,15,0.199978443624,1
352,32,15,0.145892726032687,1
352,33,15,0.180007033615604,1
352,34,15,0.213837459837353,1
352,35,15,0.226860624744854,1
353,35,15,0.223938572242454,1
353,36,15,0.212636031049095,1
354,36,15,0.214153079853089,1
330,34,16,0.196981619797722,1
331,33,16,0.196709185550558,1
331,34,16,0.255582635020123,2
331,35,16,0.231417353391441,1
331,36,16,0.193882560995452,1
332,32,16,0.181518841714113,1
332,33,16,0.244215226847411,1
332,34,16,0.304966003013559,2
332,35,16,0.257708312272371,2
332,36,16,0.204743316604844,1
333,28,16,0.256968630856388,1
333,29,16,0.246091729163355,1
333,32,16,0.202920987873691,1
333,33,16,0.258025957909103,1
333,34,16,0.293597558476616,2
333,35,16,0.240801961253356,2
333,36,16,0.194763411707279,1
334,27,16,0.252653092430782,1
334,28,16,0.275319273199649,3
334,29,16,0.278696595797882,3
334,30,16,0.238345895795084,1
334,32,16,0.20881700530496,1
334,33,16,0.230010653824292,1
334,34,16,0.233354129708898,1
334,35,16,0.206525886635509,1
335,26,16,0.236047145716297,1
335,27,16,0.280721910595873,3
335,28,16,0.315792876578724,3
335,29,16,0.302770488944396,3
335,30,16,0.265670698657409,3
335,31,16,0.235317451082902,1
335,32,16,0.217161291909038,1
335,33,16,0.218524157979972,1
335,34,16,0.216105307419077,1
335,35,16,0.203259572778631,1
336,26,16,0.230091914201478,1
336,27,16,0.284958049389162,3
336,28,16,0.350516472114406,3
336,29,16,0.334195195811129,3
336,30,16,0.278676669340172,3
336,31,16,0.25857070863477,1
336,32,16,0.242231931908232,2
336,33,16,0.257280223183864,2
336,34,16,0.257408567472352,2
336,35,16,0.231456405479955,1
336,36,16,0.177678535172647,1
337,25,16,0.22059304718312,1
337,26,16,0.247625736654761,3
337,27,16,0.289421010626596,3
337,28,16,0.327651592058021,3
337,29,16,0.31953153698751,3
337,30,16,0.279341120134494,3
337,31,16,0.288330284381171,2
337,32,16,0.292630795525431,2
337,33,16,0.316988416933852,2
337,34,16,0.299544734614914,2
337,35,16,0.252656342845869,2
337,36,16,0.179135427743791,1
338,25,16,0.248426822651417,3
338,26,16,0.349142206036935,3
338,27,16,0.378871868543039,3
338,28,16,0.312974648929261,3
338,29,16,0.280570059682332,3
338,30,16,0.263559671826787,1
338,31,16,0.287049338191934,1
338,32,16,0.284147141486046,2
338,33,16,0.289569163604132,2
338,34,16,0.2714515618904,2
338,35,16,0.232994346444691,1
339,25,16,0.235319994886014,3
339,26,16,0.383312359519651,3
339,27,16,0.402716018582576,3
339,28,16,0.296224035189653,3
339,29,16,0.266448984640988,3
339,30,16,0.245690255792593,1
339,31,16,0.236825337484946,1
339,32,16,0.219100659137072,1
339,33,16,0.219124519068113,1
339,34,16,0.221419783194487,1
340,26,16,0.233727503476766,3
340,27,16,0.254461194707495,3
340,28,16,0.249911367304536,3
340,29,16,0.268038932247123,1
340,30,16,0.226387571580971,1
340,31,16,0.193456132445088,1
340,33,16,0.20280338408723,1
341,27,16,0.190902884286448,1
341,28,16,0.243183220057153,1
341,29,16,0.250650789629461,1
343,33,16,0.229073309485022,1
343,34,16,0.238603809166152,1
344,32,16,0.241186523044171,1
344,33,16,0.278013867307127,1
344,34,16,0.237069448368758,1
344,35,16,0.209423372594893,1
345,31,16,0.192242385054723,1
345,32,16,0.270917269021971,1
345,33,16,0.295675044792133,1
345,34,16,0.20319145538419,1
346,30,16,0.213205960714824,1
346,31,16,0.226103678442936,4
346,32,16,0.229367000975784,1
346,33,16,0.221518002259086,1
347,29,16,0.207747595187464,1
347,30,16,0.28297051477813,4
347,31,16,0.296798840478013,4
347,32,16,0.244693791584704,4
347,33,16,0.189877531425625,1
348,29,16,0.248194370865201,4
348,30,16,0.350664648645675,4
348,31,16,0.419364032263338,4
348,32,16,0.386726049080891,4
348,33,16,0.272890200318842,4
348,34,16,0.163865236754111,1
349,29,16,0.204997131626454,4
349,30,16,0.337874477260237,4
349,31,16,0.474758878084844,4
349,32,16,0.509198109407841,4
349,33,16,0.399126099994639,4
349,34,16,0.214471761854052,4
350,30,16,0.242291899711222,4
350,31,16,0.340964138123233,4
350,32,16,0.395338518483415,4
350,33,16,0.380422316539742,4
350,34,16,0.237629532574294,4
350,35,16,0.14449515353689,1
351,31,16,0.198339786899018,4
351,32,16,0.224538250272352,4
351,33,16,0.264734838203287,4
351,34,16,0.212622652529026,1
352,33,16,0.172225834317958,1
331,34,17,0.194408115429117,1
332,33,17,0.201690234688449,1
332,34,17,0.233884724641321,1
332,35,17,0.207937909346206,1
333,27,17,0.241568564585606,1
333,28,17,0.238402778059114,1
333,29,17,0.237497984978183,1
333,32,17,0.196579157170194,1
333,33,17,0.232090189314538,1
333,34,17,0.240387085808791,1
333,35,17,0.199812766669471,1
334,26,17,0.219106547570202,1
334,27,17,0.243700130270984,1
334,28,17,0.265771649954979,3
334,29,17,0.274193499000238,1
334,30,17,0.238493130177052,1
334,32,17,0.20962299047798,1
334,33,17,0.225555300442462,1
334,34,17,0.213281968609658,1
335,26,17,0.243626454195669,1
335,27,17,0.282271604873135,3
335,28,17,0.292655880250563,3
335,29,17,0.268801343014985,3
335,30,17,0.252042367700333,1
335,31,17,0.233403168579999,1
335,32,17,0.214434240758151,1
335,33,17,0.211270974481038,1
335,34,17,0.205223624318343,1
335,35,17,0.198387954282017,1
336,26,17,0.240027114114725,1
336,27,17,0.284606863237325,3
336,28,17,0.310792560487634,3
336,29,17,0.281181067057571,3
336,30,17,0.262445745154832,3
336,31,17,0.257750991635693,1
336,32,17,0.231949973944861,1
336,33,17,0.232133645951033,1
336,34,17,0.241897327584087,1
336,35,17,0.239121425991958,1
336,36,17,0.19745078659574,1
337,25,17,0.232617745815467,1
337,26,17,0.239347965791313,3
337,27,17,0.263218566672467,3
337,28,17,0.296365027832504,3
337,29,17,0.296451281600983,3
337,30,17,0.272575663774802,3
337,31,17,0.2733158633729,1
337,32,17,0.257347610412596,2
337,33,17,0.261578166971279,2
337,34,17,0.267319554148571,2
337,35,17,0.253858289816242,1
337,36,17,0.198451690682209,1
338,25,17,0.251483319859028,3
338,26,17,0.304066273985119,3
338,27,17,0.312880999288771,3
338,28,17,0.287774298525094,3
338,29,17,0.282503562030969,3
338,30,17,0.254946401597358,1
338,31,17,0.256844455578556,1
338,32,17,0.245439926723396,1
338,33,17,0.239785264389234,1
338,34,17,0.245968543142288,1
338,35,17,0.233709037350473,1
339,25,17,0.218807909795611,3
339,26,17,0.325561033420956,3
339,27,17,0.338000018654556,3
339,28,17,0.27166860953555,3
339,29,17,0.263386410570388,1
339,30,17,0.233772326229747,1
339,31,17,0.215676393949932,1
339,32,17,0.205326719005573,1
339,33,17,0.203221462839418,1
339,34,17,0.221564497327075,1
340,26,17,0.206979884829785,3
340,27,17,0.223025606016339,3
340,28,17,0.217923184494785,1
340,29,17,0.244584620034485,1
340,30,17,0.222960927466846,1
343,33,17,0.215695566688201,1
344,32,17,0.215973241640851,1
344,33,17,0.248799937328229,1
344,34,17,0.221680051938807,1
345,32,17,0.232664240883457,1
345,33,17,0.255450828332954,1
346,30,17,0.198554172972393,1
346,31,17,0.196604771854307,1
346,32,17,0.193181978775449,1
347,29,17,0.197606912511733,1
347,30,17,0.28133449607119,4
347,31,17,0.27758876954265,4
347,32,17,0.212251657688141,4
348,29,17,0.2339536664164,4
348,30,17,0.368926940938262,4
348,31,17,0.418739952566551,4
348,32,17,0.328337641625061,4
348,33,17,0.212816429086448,4
349,29,17,0.206284861290656,4
349,30,17,0.356026490977177,4
349,31,17,0.4600487713007,4
349,32,17,0.403334539598488,4
349,33,17,0.281777070705196,4
349,34,17,0.166751487583085,1
350,29,17,0.168645243008098,1
350,30,17,0.257954943405563,4
350,31,17,0.321615170827214,4
350,32,17,0.3163768207153,4
350,33,17,0.284324430430706,4
350,34,17,0.183590522034564,1
351,30,17,0.1831842672561,1
351,31,17,0.188491841787883,4
351,32,17,0.199464501180466,4
351,33,17,0.227314882030189,1
333,27,18,0.241621489822574,1
333,28,18,0.232184380690876,1
333,29,18,0.227234728678431,1
333,33,18,0.202579199661128,1
333,34,18,0.19480757495575,1
334,26,18,0.228847711834969,1
334,27,18,0.246294856552587,1
334,28,18,0.264474875657491,1
334,29,18,0.26349972757753,1
334,30,18,0.231156802002331,1
334,32,18,0.201698148742575,1
334,33,18,0.210799994045616,1
334,34,18,0.192270508211349,1
335,24,18,0.301409719155657,3
335,25,18,0.262514050979133,1
335,26,18,0.264127316780461,1
335,27,18,0.287321289587583,1
335,28,18,0.272564004677206,3
335,29,18,0.244914160306138,1
335,30,18,0.238031759664497,1
335,31,18,0.230631153353736,1
335,32,18,0.210072984537728,1
335,33,18,0.199942948149096,1
335,34,18,0.197026159905913,1
335,35,18,0.200023619682969,1
336,24,18,0.261822207193894,1
336,25,18,0.245781196753843,1
336,26,18,0.259164992859922,1
336,27,18,0.281615468546393,1
336,28,18,0.271598843379832,3
336,29,18,0.248955415516577,3
336,30,18,0.255174684372918,1
336,31,18,0.259555914158516,1
336,32,18,0.230354090798131,1
336,33,18,0.214177410858779,1
336,34,18,0.229717103655926,1
336,35,18,0.249495549710671,1
336,36,18,0.220728905112281,1
337,25,18,0.239764937518072,1
337,26,18,0.23857132856901,1
337,27,18,0.254692680790678,1
337,28,18,0.281662976424881,3
337,29,18,0.283835007422723,3
337,30,18,0.271104756732811,1
337,31,18,0.259745003523167,1
337,32,18,0.230283900675229,1
337,33,18,0.21740417799876,1
337,34,18,0.236862882134579,1
337,35,18,0.25289183306358,1
337,36,18,0.220331530090977,1
338,25,18,0.247148750017548,1
338,26,18,0.266125403463661,3
338,27,18,0.283901947130538,3
338,28,18,0.303090160202125,3
338,29,18,0.297362811049414,3
338,30,18,0.2561915696669,3
338,31,18,0.23144326249721,1
338,32,18,0.20799688789243,1
338,33,18,0.197618807146655,1
338,34,18,0.222455440813286,1
338,35,18,0.234149963223202,1
339,25,18,0.205045039918395,1
339,26,18,0.266951244433193,3
339,27,18,0.289133372445091,3
339,28,18,0.275692434983926,3
339,29,18,0.26752621459768,3
339,30,18,0.229048530958414,1
340,26,18,0.192384520053601,1
340,27,18,0.211179609552603,1
340,28,18,0.209343431226728,1
340,29,18,0.223831708958022,1
344,33,18,0.209880362113199,1
346,30,18,0.188652666673513,1
346,31,18,0.171282907744081,1
347,29,18,0.197275334842217,1
347,30,18,0.277192266009448,4
347,31,18,0.242562178791861,4
347,32,18,0.172831777640706,1
348,29,18,0.227088271569637,4
348,30,18,0.36901832942043,4
348,31,18,0.366626047469816,4
348,32,18,0.24890529317378,4
348,33,18,0.159225304547406,1
349,29,18,0.207129121279017,4
349,30,18,0.347259509089338,4
349,31,18,0.388188947853826,4
349,32,18,0.286602500332343,4
349,33,18,0.187963343137653,1
350,29,18,0.194740564586737,1
350,30,18,0.262035933762759,4
350,31,18,0.280082827171473,4
350,32,18,0.237850702122634,4
350,33,18,0.195085085032272,1
351,30,18,0.194668407727169,1
351,31,18,0.175040399362014,1
331,26,19,0.18730481610706,1
333,26,19,0.261102075375901,1
333,27,19,0.240987917971583,1
333,28,19,0.227185831129725,1
333,29,19,0.218835679646249,1
333,32,19,0.174066005001494,1
333,33,19,0.189608382924147,1
333,34,19,0.17607663404726,1
334,24,19,0.236302845036508,3
334,25,19,0.235962941122546,1
334,26,19,0.248445830513559,1
334,27,19,0.260226771568082,1
334,28,19,0.270179825210577,1
334,29,19,0.259128743665577,1
334,30,19,0.23139966453832,1
334,31,19,0.208636772143735,1
334,32,19,0.200756376301591,1
334,33,19,0.20379638589644,1
334,34,19,0.183082680007752,1
334,35,19,0.155857297450384,1
335,23,19,0.309151336405808,3
335,24,19,0.323163875847711,3
335,25,19,0.285304100827311,3
335,26,19,0.291050575610826,3
335,27,19,0.294037919059765,3
335,28,19,0.268159174051625,1
335,29,19,0.246008372503976,1
335,30,19,0.239503985715509,1
335,31,19,0.238927790756931,1
335,32,19,0.220754460912063,1
335,33,19,0.200276775200068,1
335,34,19,0.195385406898738,1
335,35,19,0.198049275162146,1
336,23,19,0.274474989657556,1
336,24,19,0.288077552831258,3
336,25,19,0.275192530564972,3
336,26,19,0.27953305950078,3
336,27,19,0.268625797046532,1
336,28,19,0.245103767852905,1
336,29,19,0.244870444578586,1
336,30,19,0.263916086907243,1
336,31,19,0.27502850237172,1
336,32,19,0.249731228358242,1
336,33,19,0.21294611593769,1
336,34,19,0.222871729481802,1
336,35,19,0.250771738045939,1
336,36,19,0.234389080715721,1
337,24,19,0.243539328939086,1
337,25,19,0.256080207619557,1
337,26,19,0.244944144207633,1
337,27,19,0.246400495042929,1
337,28,19,0.268534620547956,3
337,29,19,0.28014585695969,3
337,30,19,0.282060351446185,1
337,31,19,0.263709944640249,1
337,32,19,0.226095929264938,1
337,33,19,0.198692716027062,1
337,34,19,0.219699018157949,1
337,35,19,0.248190531606801,1
337,36,19,0.231135627196798,1
338,26,19,0.240103710852872,1
338,27,19,0.272618767105309,3
338,28,19,0.321731691141978,3
338,29,19,0.310822968356314,3
338,30,19,0.269112794020065,3
338,31,19,0.222219573735855,1
338,34,19,0.208601465098692,1
338,35,19,0.236323148353938,1
338,36,19,0.217412398251409,1
339,26,19,0.229900304587447,1
339,27,19,0.271575642953303,3
339,28,19,0.302017075702356,3
339,29,19,0.281739526055563,3
339,30,19,0.238402754505382,1
339,31,19,0.193818518396737,1
339,35,19,0.240958876219388,1
340,27,19,0.218165575956124,1
340,28,19,0.222198351822856,3
340,29,19,0.216056928052486,1
340,30,19,0.207996440371512,1
343,27,19,0.297752860859905,5
344,27,19,0.26923221144393,5
346,30,19,0.198730284230427,1
347,29,19,0.200618469197701,1
347,30,19,0.273249724491991,4
347,31,19,0.215324406971189,1
348,29,19,0.217106152621215,4
348,30,19,0.336582743461507,4
348,31,19,0.295575930685699,4
348,32,19,0.190009644311317,1
349,29,19,0.208938047936368,4
349,30,19,0.30455557922444,4
349,31,19,0.295364936349806,4
349,32,19,0.200589239015646,1
350,30,19,0.244512145199528,4
350,31,19,0.226772416016576,1
331,25,20,0.169797444495394,1
331,26,20,0.181199629754168,1
331,27,20,0.147658196053544,1
332,26,20,0.260237582731308,1
332,27,20,0.199559375615047,1
332,28,20,0.150209406814321,1
332,29,20,0.136642975066301,1
333,25,20,0.263889683173091,1
333,26,20,0.271980908475,1
333,27,20,0.239594455602109,1
333,28,20,0.218912841673977,1
333,29,20,0.214660568573913,1
333,30,20,0.203080470196567,1
333,32,20,0.17270663665984,1
333,33,20,0.187338651043821,1
333,34,20,0.171913900461361,1
334,23,20,0.19612779699396,1
334,24,20,0.2314262331486,3
334,25,20,0.249555588174858,3
334,26,20,0.274707064584052,3
334,27,20,0.28150523707821,3
334,28,20,0.276694811178677,1
334,29,20,0.26328875679537,1
334,30,20,0.23875601338568,1
334,31,20,0.213892740447572,1
334,32,20,0.198306340598843,1
334,33,20,0.196245624540879,1
334,34,20,0.175685418327009,1
334,35,20,0.146562064226506,1
335,22,20,0.206918103389392,1
335,23,20,0.306157986755077,3
335,24,20,0.318137108915003,3
335,25,20,0.304569876340078,3
335,26,20,0.314244524864215,3
335,27,20,0.298984744624308,3
335,28,20,0.272077031257405,3
335,29,20,0.260409124565233,3
335,30,20,0.241256995811864,1
335,31,20,0.236967578475619,1
335,32,20,0.224380958446599,1
335,33,20,0.198094828080835,1
335,34,20,0.189850691947422,1
335,35,20,0.189404442931143,1
335,36,20,0.180073937992821,1
336,22,20,0.200530166254492,1
336,23,20,0.301126721059458,3
336,24,20,0.325807570339218,3
336,25,20,0.317897685223962,3
336,26,20,0.295416401255357,3
336,27,20,0.253320982070051,3
336,28,20,0.232209559630938,1
336,29,20,0.252958631449,1
336,30,20,0.263811484781133,3
336,31,20,0.278622919722567,1
336,32,20,0.264694490659485,1
336,33,20,0.212490280552277,1
336,34,20,0.215177926308662,1
336,35,20,0.244051222207891,1
336,36,20,0.237742354953053,1
336,37,20,0.201484068867722,1
337,23,20,0.208936776034812,1
337,24,20,0.27410192208821,3
337,25,20,0.291814046296651,3
337,26,20,0.255609062308008,3
337,27,20,0.231410475701546,1
337,28,20,0.246036260123276,3
337,29,20,0.275393773655602,3
337,30,20,0.286987250553018,3
337,31,20,0.268837757085457,1
337,32,20,0.23036577344946,1
337,33,20,0.190671527748794,1
337,34,20,0.210943718921439,1
337,35,20,0.243726392682741,1
337,36,20,0.235070490197455,1
337,37,20,0.19139445068409,1
338,25,20,0.238993011042272,1
338,26,20,0.226913973949007,1
338,27,20,0.257283685582544,3
338,28,20,0.318951408555601,3
338,29,20,0.320602831403607,3
338,30,20,0.288815232179976,3
338,31,20,0.225119933250606,1
338,32,20,0.174529883986562,1
338,34,20,0.19693818671496,1
338,35,20,0.233862018843174,1
338,36,20,0.225677591421693,1
339,26,20,0.209984281181067,1
339,27,20,0.26579878385484,3
339,28,20,0.327866755404569,3
339,29,20,0.303886417683615,3
339,30,20,0.259108346133217,3
339,31,20,0.199494084668508,1
339,35,20,0.246981188764417,1
340,27,20,0.23558968512334,1
340,28,20,0.250734970669479,3
340,29,20,0.225718339378948,3
340,30,20,0.210297310286226,1
341,28,20,0.178926965434144,1
342,27,20,0.217240338235368,5
343,26,20,0.276641438420792,5
343,27,20,0.334338072752581,5
343,28,20,0.274793177030136,5
344,26,20,0.253643244238357,5
344,27,20,0.331336290865608,5
344,28,20,0.270971089300774,5
345,27,20,0.19931952795682,5
346,30,20,0.224409529124143,1
347,29,20,0.206794375632477,1
347,30,20,0.272712346084602,1
347,31,20,0.202546507080393,1
348,29,20,0.210142844908376,1
348,30,20,0.292758362540747,4
348,31,20,0.237045447115323,1
349,29,20,0.22603869369492,1
349,30,20,0.263727986799358,4
349,31,20,0.225824048530487,1
350,29,20,0.26244534474138,6
350,30,20,0.236986963197481,1
351,29,20,0.251387880134867,1
331,24,21,0.119821476368681,1
331,25,21,0.156611911932783,1
331,26,21,0.172989811409032,1
331,27,21,0.137245809296357,1
332,25,21,0.25783095655759,1
332,26,21,0.247306088950765,1
332,27,21,0.184761354524281,1
332,28,21,0.14066855526775,1
332,29,21,0.132171251840371,1
332,30,21,0.131237852751297,1
332,31,21,0.126901799024668,1
333,24,21,0.238222544897889,1
333,25,21,0.278175610788326,1
333,26,21,0.272982130536858,3
333,27,21,0.235369575492963,3
333,28,21,0.206158990144082,1
333,29,21,0.208970740517102,1
333,30,21,0.214144647616847,1
333,31,21,0.193883467814154,1
333,32,21,0.177173024965355,1
333,33,21,0.190733085428728,1
333,34,21,0.178275822498695,1
334,23,21,0.194530700830005,1
334,24,21,0.228368393378236,3
334,25,21,0.263727963245625,3
334,26,21,0.304996693527029,3
334,27,21,0.304453921314894,3
334,28,21,0.278959455452779,3
334,29,21,0.275839598704695,3
334,30,21,0.267724513471746,1
334,31,21,0.236236753263063,1
334,32,21,0.204967171278692,1
334,33,21,0.196499533777419,1
334,34,21,0.174258368334965,1
334,35,21,0.143184258776757,1
335,22,21,0.192794649421063,1
335,23,21,0.278720691266248,3
335,24,21,0.300844076269247,3
335,25,21,0.316020900263227,3
335,26,21,0.332205046735787,3
335,27,21,0.307657040507427,3
335,28,21,0.286666990451976,3
335,29,21,0.297945012209784,3
335,30,21,0.274730948068825,3
335,31,21,0.25238924351912,1
335,32,21,0.232729838028519,1
335,33,21,0.200226888394595,1
335,34,21,0.183330912794755,1
335,35,21,0.178114514761548,1
335,36,21,0.175800949385007,1
336,22,21,0.191463145144977,1
336,23,21,0.310441609873122,3
336,24,21,0.36308048056021,3
336,25,21,0.358258913745195,3
336,26,21,0.307876231542235,3
336,27,21,0.250171612495123,3
336,28,21,0.242491376271913,1
336,29,21,0.284131596022585,3
336,30,21,0.283475577464505,3
336,31,21,0.287872352713564,3
336,32,21,0.277938306933211,1
336,33,21,0.216636703178407,1
336,34,21,0.210254442493044,1
336,35,21,0.233095415510924,1
336,36,21,0.23566331409119,1
336,37,21,0.212112879096147,1
337,23,21,0.223744277502916,3
337,24,21,0.31365516336916,3
337,25,21,0.34031801213281,3
337,26,21,0.283107032211802,3
337,27,21,0.234366115826516,1
337,28,21,0.240628016938714,3
337,29,21,0.285836368074743,3
337,30,21,0.299908498459916,3
337,31,21,0.281422469262144,3
337,32,21,0.245042057073709,1
337,33,21,0.196318770657212,1
337,34,21,0.214244044368072,1
337,35,21,0.244936230153507,1
337,36,21,0.240297840716282,1
337,37,21,0.202998620976069,1
338,24,21,0.207578573602917,3
338,25,21,0.248768563756515,3
338,26,21,0.234510476653116,1
338,27,21,0.24546223210809,3
338,28,21,0.30053966783019,3
338,29,21,0.330613544583306,3
338,30,21,0.316466654651123,3
338,31,21,0.243298939545012,3
338,32,21,0.181639919676119,1
338,34,21,0.191256366927205,1
338,35,21,0.225117224571367,1
338,36,21,0.220538920705794,1
338,37,21,0.176076433840533,1
339,26,21,0.209394919686012,1
339,27,21,0.262976905376837,3
339,28,21,0.338229220025685,3
339,29,21,0.33331595852998,3
339,30,21,0.294611358231639,3
339,31,21,0.218497283171169,1
339,35,21,0.228416089686584,1
339,36,21,0.218415810810391,1
340,27,21,0.25666262076352,1
340,28,21,0.285115129231322,3
340,29,21,0.257712575497957,3
340,30,21,0.23140611826103,1
341,28,21,0.193269575106682,1
341,29,21,0.180622857729143,1
342,27,21,0.202514309128042,5
342,28,21,0.185107912367679,1
343,26,21,0.266864236945273,5
343,27,21,0.322984820373112,5
343,28,21,0.276921633622821,5
343,29,21,0.207184284120573,1
344,26,21,0.259325464439564,5
344,27,21,0.352416551716601,5
344,28,21,0.305706862116167,5
344,29,21,0.225842232011991,1
345,27,21,0.232757702094087,5
345,28,21,0.225746015014657,1
346,30,21,0.260314886081431,1
347,29,21,0.217337426720805,1
347,30,21,0.292218228346653,1
347,31,21,0.222629008268208,1
348,29,21,0.214876155887646,1
348,30,21,0.267612680349752,1
348,31,21,0.213192888393276,1
349,29,21,0.260308173267663,6
349,30,21,0.244548041087885,1
349,31,21,0.187966181362421,1
350,28,21,0.257730876748123,6
350,29,21,0.317659839632999,6
350,30,21,0.254754627107199,6
350,31,21,0.179002702461054,1
351,28,21,0.227495656927261,1
351,29,21,0.305942022581623,6
351,30,21,0.243340299899312,6
352,29,21,0.233667205921521,1
331,25,22,0.127481951010309,1
331,26,22,0.145043331330638,1
331,27,22,0.116351469832992,1
332,24,22,0.189062454511854,1
332,25,22,0.22474302642286,1
332,26,22,0.216996062475428,1
332,27,22,0.164210075175035,1
332,28,22,0.125520455050575,1
332,29,22,0.11754228766475,1
332,30,22,0.121317326813409,1
332,31,22,0.124443119102086,1
332,32,22,0.131725603444272,1
332,33,22,0.163595558293651,1
333,24,22,0.257992982683579,1
333,25,22,0.277128859361511,3
333,26,22,0.26910283079121,3
333,27,22,0.22898338133427,3
333,28,22,0.189991178185023,1
333,29,22,0.196086330647862,1
333,30,22,0.221370014157678,1
333,31,22,0.210762425842251,1
333,32,22,0.180925311208402,1
333,33,22,0.194140980771769,1
333,34,22,0.188902406899397,1
334,23,22,0.218304966945163,1
334,24,22,0.250315926214259,3
334,25,22,0.284119724941396,3
334,26,22,0.337700415176932,3
334,27,22,0.324301285590985,3
334,28,22,0.274650111658824,3
334,29,22,0.28697285922245,3
334,30,22,0.3066876395382,3
334,31,22,0.267919938790444,1
334,32,22,0.214517668078729,1
334,33,22,0.20208412375734,1
334,34,22,0.177284858087348,1
334,35,22,0.140653374887142,1
335,22,22,0.178399220503355,1
335,23,22,0.254670045653729,3
335,24,22,0.296379348501874,3
335,25,22,0.319775530102659,3
335,26,22,0.342285384748807,3
335,27,22,0.314579294064488,3
335,28,22,0.290824130026402,3
335,29,22,0.329121439182049,3
335,30,22,0.324911303709458,3
335,31,22,0.278390020415433,3
335,32,22,0.236378405410424,1
335,33,22,0.197952893288684,1
335,34,22,0.170588355279602,1
335,35,22,0.15989113323508,1
335,36,22,0.163030492473687,1
335,37,22,0.172070815427393,1
336,22,22,0.170409888648316,1
336,23,22,0.291923359169265,3
336,24,22,0.382714259589832,3
336,25,22,0.382074493107189,3
336,26,22,0.313984491657221,3
336,27,22,0.250795998390432,3
336,28,22,0.247850604139107,3
336,29,22,0.303867621805066,3
336,30,22,0.309294472438317,3
336,31,22,0.295763653933864,3
336,32,22,0.275261495893784,3
336,33,22,0.210642725773596,1
336,34,22,0.196170723671473,1
336,35,22,0.214173500939182,1
336,36,22,0.222448657338321,1
336,37,22,0.202428903293933,1
336,38,22,0.181687203794148,1
337,23,22,0.221212157042345,3
337,24,22,0.33368747155298,3
337,25,22,0.378950490902182,3
337,26,22,0.311456092686387,3
337,27,22,0.241764272549095,3
337,28,22,0.238011103041079,3
337,29,22,0.291419827475504,3
337,30,22,0.308499651734511,3
337,31,22,0.291762157423915,3
337,32,22,0.257883198736314,3
337,33,22,0.20141369031496,1
337,34,22,0.212747887724822,1
337,35,22,0.240711491366756,1
337,36,22,0.237001048329527,1
337,37,22,0.202554279812124,1
337,38,22,0.163933695677673,1
338,24,22,0.20029008305894,3
338,25,22,0.254589609657181,3
338,26,22,0.24214546615616,3
338,27,22,0.229800530976503,1
338,28,22,0.27308506034796,3
338,29,22,0.338373934158273,3
338,30,22,0.342747532534535,3
338,31,22,0.273379364235768,3
338,32,22,0.203731424702156,1
338,34,22,0.18810318164761,1
338,35,22,0.214326294002023,1
338,36,22,0.203913636376912,1
338,37,22,0.16476893458648,1
339,25,22,0.185634632711103,1
339,26,22,0.206723125591611,1
339,27,22,0.2440461581554,3
339,28,22,0.315934434511155,3
339,29,22,0.359745696002903,3
339,30,22,0.335029681000495,3
339,31,22,0.247719645386309,3
339,32,22,0.172756146605592,1
339,35,22,0.199228987409023,1
339,36,22,0.187194525754546,1
340,26,22,0.238926613070305,1
340,27,22,0.269004470404217,1
340,28,22,0.305789017535189,3
340,29,22,0.306689665159196,3
340,30,22,0.26889494554801,3
340,31,22,0.212441995400616,1
341,27,22,0.213607292763191,1
341,28,22,0.214261591898797,1
341,29,22,0.203365258376437,3
341,30,22,0.193548086216836,1
342,28,22,0.187396122151164,1
343,27,22,0.277398997119755,5
343,28,22,0.268478303573506,5
343,29,22,0.211565443244973,1
344,26,22,0.229202407492951,5
344,27,22,0.326589884011057,5
344,28,22,0.321595762551619,5
344,29,22,0.26087697235423,5
344,30,22,0.165903294121393,1
345,27,22,0.253294177922446,5
345,28,22,0.253973137815998,5
345,29,22,0.247795912372201,1
345,30,22,0.196473365580592,1
346,29,22,0.24041195855033,1
346,30,22,0.271756205866783,1
346,31,22,0.200151657772934,1
347,29,22,0.211798012799852,1
347,30,22,0.294597602851848,1
347,31,22,0.23708836201597,1
348,29,22,0.208276329375019,1
348,30,22,0.24211524671734,1
349,28,22,0.232196793507913,1
349,29,22,0.284651897973899,6
349,30,22,0.23638219756136,1
349,31,22,0.168288910365706,1
350,28,22,0.283656988312355,6
350,29,22,0.363551908516549,6
350,30,22,0.283611246963806,6
350,31,22,0.180213847163975,1
351,28,22,0.256458315687662,6
351,29,22,0.365764640364182,6
351,30,22,0.311500208827392,6
351,31,22,0.196941861097233,6
352,29,22,0.257678351924608,6
352,30,22,0.22932429805873,6
331,22,23,0.128023580866417,1
332,23,23,0.147648079725428,1
332,24,23,0.165386301469499,1
332,25,23,0.181023671595395,1
332,26,23,0.177759442243845,1
332,27,23,0.142776284575819,1
332,31,23,0.117351879291078,1
332,32,23,0.125701677468565,1
332,33,23,0.158295085212222,1
332,34,23,0.170537443886765,1
333,23,23,0.226513372066347,1
333,24,23,0.262294600853267,3
333,25,23,0.263522244945816,3
333,26,23,0.255771889260902,3
333,27,23,0.219215483583096,3
333,28,23,0.177303500866636,1
333,29,23,0.175887744889335,1
333,30,23,0.206102578954702,3
333,31,23,0.212091303877161,1
333,32,23,0.184302539591705,1
333,33,23,0.196553966453267,1
333,34,23,0.195106966449781,1
333,35,23,0.160630225807749,1
334,23,23,0.254070980020876,3
334,24,23,0.291576789549002,3
334,25,23,0.306998313270107,3
334,26,23,0.342873898309492,3
334,27,23,0.317906211675133,3
334,28,23,0.260722294992787,3
334,29,23,0.274227557697459,3
334,30,23,0.310634185190186,3
334,31,23,0.286279084031144,3
334,32,23,0.230539647102905,1
334,33,23,0.214513428406875,1
334,34,23,0.184365640041119,1
334,35,23,0.142426594085997,1
335,23,23,0.240194298508135,3
335,24,23,0.306855601204783,3
335,25,23,0.323701324916297,3
335,26,23,0.338895719994735,3
335,27,23,0.315745533576364,3
335,28,23,0.286887476942074,3
335,29,23,0.328040487735619,3
335,30,23,0.349334946230126,3
335,31,23,0.301729625950711,3
335,32,23,0.246135703981966,3
335,33,23,0.204069302995121,1
335,34,23,0.165514480881859,1
335,35,23,0.145682756284159,1
335,36,23,0.147875761880809,1
336,23,23,0.250707813215886,3
336,24,23,0.361104416616913,3
336,25,23,0.376440204751655,3
336,26,23,0.317098130219919,3
336,27,23,0.266090897245523,3
336,28,23,0.259706940691419,3
336,29,23,0.309716319787707,3
336,30,23,0.331309863577723,3
336,31,23,0.30043581942352,3
336,32,23,0.262096678838922,3
336,33,23,0.203356802586464,1
336,34,23,0.181038993298398,1
336,35,23,0.19239812233413,1
336,36,23,0.203983590962489,1
336,37,23,0.183251901799025,1
337,23,23,0.207882416752394,3
337,24,23,0.312556899929329,3
337,25,23,0.378441023667827,3
337,26,23,0.32714815457919,3
337,27,23,0.2563821429167,3
337,28,23,0.246973156941629,3
337,29,23,0.296167435570413,3
337,30,23,0.31914721073402,3
337,31,23,0.298637232854743,3
337,32,23,0.263867660433187,3
337,33,23,0.205044403967617,1
337,34,23,0.206308886097824,1
337,35,23,0.233469472337036,1
337,36,23,0.229030889212758,1
337,37,23,0.190511727450528,1
338,24,23,0.18835362848547,3
338,25,23,0.244167389216668,3
338,26,23,0.240593204522053,3
338,27,23,0.21594554245141,1
338,28,23,0.244376098840506,3
338,29,23,0.323500411577922,3
338,30,23,0.348615992098759,3
338,31,23,0.300690246842175,3
338,32,23,0.237339138606084,3
338,33,23,0.180355346212075,1
338,34,23,0.188298041676728,1
338,35,23,0.207418102023275,1
338,36,23,0.186187615466285,1
339,25,23,0.170925644729254,1
339,26,23,0.193400074561696,1
339,27,23,0.212508511141245,1
339,28,23,0.265773840452104,3
339,29,23,0.343012300041765,3
339,30,23,0.344272071425469,3
339,31,23,0.269442899581299,3
339,32,23,0.190482273508015,1
339,35,23,0.176453564428739,1
340,26,23,0.236605746036684,1
340,27,23,0.261025926158672,1
340,28,23,0.29046392279501,3
340,29,23,0.315759548047212,3
340,30,23,0.281528390397275,3
340,31,23,0.220966138306198,1
341,27,23,0.245917502203923,1
341,28,23,0.239572432862205,1
341,29,23,0.218428388503555,3
341,30,23,0.198628367229824,1
343,28,23,0.250750186380685,1
343,29,23,0.206665772252931,1
344,27,23,0.272395760365833,5
344,28,23,0.300467475640023,5
344,29,23,0.267880180089955,1
344,30,23,0.179682781156901,1
345,28,23,0.261189907244459,1
345,29,23,0.254841163520469,1
345,30,23,0.210889309799323,1
346,29,23,0.227520788759857,1
346,30,23,0.263386222140527,1
346,31,23,0.207915391977919,1
347,29,23,0.196315461357794,1
347,30,23,0.273146370713704,1
347,31,23,0.231521696426494,1
348,29,23,0.193952221159373,1
348,30,23,0.215691562553673,1
349,28,23,0.229292806718354,1
349,29,23,0.288324089749519,6
349,30,23,0.231237143783949,6
349,31,23,0.158995125696378,1
350,28,23,0.293482310063408,6
350,29,23,0.389817193829035,6
350,30,23,0.310360773463121,6
350,31,23,0.186765753607796,6
351,28,23,0.275642807269511,6
351,29,23,0.415222014185188,6
351,30,23,0.379194507571065,6
351,31,23,0.2251778754326,6
352,28,23,0.194913507867747,6
352,29,23,0.299352818802361,6
352,30,23,0.300366477234988,6
352,31,23,0.195995601670205,6
353,29,23,0.229142769442217,6
353,30,23,0.224236574066266,6
331,21,24,0.135458186990068,1
331,22,24,0.127185244641785,1
332,22,24,0.171148039071685,1
332,23,24,0.152785172341248,1
332,24,24,0.144707561096733,1
332,25,24,0.145343806296365,1
332,26,24,0.143377752689389,1
332,27,24,0.122476853511518,1
332,34,24,0.154094912968487,1
333,23,24,0.241025368406286,1
333,24,24,0.255257640618845,3
333,25,24,0.24851142765862,3
333,26,24,0.240150888979105,3
333,27,24,0.208968973987164,3
333,28,24,0.168229637397825,1
333,29,24,0.155720638694317,1
333,30,24,0.175201177140179,1
333,31,24,0.192061033091204,1
333,32,24,0.17398439131832,1
333,33,24,0.17877153435326,1
333,34,24,0.179542730663351,1
333,35,24,0.155043268677709,1
334,22,24,0.227040763691149,1
334,23,24,0.281071353771504,3
334,24,24,0.335395211375435,3
334,25,24,0.33054846562036,3
334,26,24,0.331742851842594,3
334,27,24,0.301574642390745,3
334,28,24,0.24978285813992,3
334,29,24,0.250036013657019,3
334,30,24,0.28029059464601,3
334,31,24,0.279793610889889,3
334,32,24,0.238935280843872,1
334,33,24,0.213353901708767,1
334,34,24,0.178231506150963,1
335,23,24,0.234441888184025,3
335,24,24,0.327040985096234,3
335,25,24,0.338451944120371,3
335,26,24,0.337925730182196,3
335,27,24,0.322280281126046,3
335,28,24,0.289604211558118,3
335,29,24,0.307606988825827,3
335,30,24,0.340029361140807,3
335,31,24,0.311681831658836,3
335,32,24,0.262102237519796,3
335,33,24,0.216403544780215,1
335,34,24,0.16238797020434,1
336,23,24,0.206339176197842,3
336,24,24,0.315893121264319,3
336,25,24,0.360025325915352,3
336,26,24,0.331825713873591,3
336,27,24,0.302228847311422,3
336,28,24,0.286739795039188,3
336,29,24,0.310695943076847,3
336,30,24,0.345622406910703,3
336,31,24,0.301265193452929,3
336,32,24,0.248685112882205,3
336,33,24,0.19918256300223,1
336,35,24,0.166045240690411,1
336,36,24,0.173997981821983,1
337,23,24,0.18649728816456,1
337,24,24,0.262693318437325,3
337,25,24,0.337323461241721,3
337,26,24,0.316225676413735,3
337,27,24,0.264435281833129,3
337,28,24,0.2558970537955,3
337,29,24,0.296653254857321,3
337,30,24,0.333564591730435,3
337,31,24,0.296468475825721,3
337,32,24,0.253144258414971,3
337,33,24,0.198897091764117,1
337,34,24,0.188597762923014,1
337,35,24,0.210890416824751,1
337,36,24,0.205230078041053,1
337,37,24,0.168708049035856,1
338,24,24,0.179004398329795,1
338,25,24,0.219728790075851,3
338,26,24,0.225983931266817,3
338,27,24,0.205233281348675,1
338,28,24,0.223471336850502,3
338,29,24,0.296284803819549,3
338,30,24,0.340694636315767,3
338,31,24,0.305803055559769,3
338,32,24,0.254552795173256,3
338,33,24,0.190495722689282,1
338,35,24,0.199234970057082,1
338,36,24,0.170410842574483,1
339,27,24,0.188335798309954,1
339,28,24,0.22591856965908,3
339,29,24,0.301310864140281,3
339,30,24,0.324445787739981,3
339,31,24,0.26829524396438,3
339,32,24,0.198929501700061,1
340,27,24,0.239956735561962,1
340,28,24,0.259814275050502,1
340,29,24,0.287151137423875,3
340,30,24,0.267945989218609,3
340,31,24,0.219959757976919,1
341,26,24,0.24358857979378,1
341,27,24,0.279263746123173,1
341,28,24,0.262223374366134,1
341,29,24,0.226670593230902,1
341,30,24,0.200479478622114,1
342,27,24,0.249506195997769,1
342,28,24,0.243113147702913,1
343,28,24,0.233391768573461,1
343,29,24,0.204099216235418,1
344,27,24,0.219453847356174,1
344,28,24,0.265273252974907,1
344,29,24,0.261293213915281,1
344,30,24,0.217506189214294,1
345,28,24,0.262835300336941,1
345,29,24,0.262047781290215,1
345,30,24,0.253087682349464,1
345,31,24,0.20076226473472,1
346,29,24,0.223988364832996,1
346,30,24,0.2591723651782,1
346,31,24,0.227140301764768,1
347,30,24,0.241853517641604,1
348,29,24,0.181763046812855,1
349,28,24,0.219555952786637,1
349,29,24,0.265675244527785,6
349,30,24,0.220249798639141,6
350,28,24,0.285439511235554,6
350,29,24,0.384973839811442,6
350,30,24,0.317519482940927,6
350,31,24,0.1898522700475,6
351,28,24,0.27632117831975,6
351,29,24,0.439753415032124,6
351,30,24,0.412201106667412,6
351,31,24,0.233863644050718,6
352,28,24,0.208424034831637,6
352,29,24,0.360763005264071,6
352,30,24,0.38067481255233,6
352,31,24,0.229681537519824,6
353,29,24,0.26883151534634,6
353,30,24,0.305085915065806,6
353,31,24,0.209220574957917,1
354,30,24,0.220942914325936,1
331,21,25,0.124867368932193,1
331,22,25,0.123059337316678,1
332,21,25,0.146984735956534,1
332,22,25,0.186992870473597,1
332,23,25,0.159478248080913,1
332,24,25,0.131059068144623,1
332,25,25,0.121938474070497,1
332,26,25,0.120657940071579,1
333,22,25,0.25307258440692,1
333,23,25,0.250070566982623,1
333,24,25,0.244067921804246,3
333,25,25,0.234286692640467,3
333,26,25,0.224413038630288,3
333,27,25,0.206574242448367,1
333,28,25,0.177941135736486,1
333,29,25,0.155274130586981,1
333,30,25,0.155288451256351,1
333,31,25,0.169468563728251,1
333,32,25,0.159424262925982,1
333,33,25,0.152612511705027,1
333,34,25,0.152354468788431,1
334,22,25,0.239453298083131,1
334,23,25,0.297937569230308,3
334,24,25,0.355996271538357,3
334,25,25,0.335160733968223,3
334,26,25,0.301130607425324,3
334,27,25,0.27900531456999,3
334,28,25,0.248985634955397,3
334,29,25,0.233362726821266,3
334,30,25,0.244211882217394,3
334,31,25,0.257926985125064,3
334,32,25,0.239004151957753,1
334,33,25,0.20250896243076,1
334,34,25,0.1639589217252,1
335,22,25,0.165210284426395,1
335,23,25,0.244035299884709,3
335,24,25,0.338924408440942,3
335,25,25,0.346788505100184,3
335,26,25,0.328080929494351,3
335,27,25,0.319854670643919,3
335,28,25,0.295389126033102,3
335,29,25,0.288254747560987,3
335,30,25,0.315406430489308,3
335,31,25,0.307704854584437,3
335,32,25,0.276391109351595,3
335,33,25,0.230726875722687,1
335,34,25,0.165076687655555,1
336,23,25,0.17929713589439,1
336,24,25,0.264742846472343,3
336,25,25,0.334001843220892,3
336,26,25,0.348112790157253,3
336,27,25,0.337685387895586,3
336,28,25,0.311621769640916,3
336,29,25,0.30678793133126,3
336,30,25,0.344158306897409,3
336,31,25,0.299407392800604,3
336,32,25,0.239427624514687,3
336,33,25,0.200115644115915,1
337,24,25,0.213245460324256,1
337,25,25,0.280508819977786,3
337,26,25,0.296713528858834,3
337,27,25,0.273216655051536,3
337,28,25,0.260451544837498,3
337,29,25,0.287956675075977,3
337,30,25,0.342181489234672,3
337,31,25,0.297372232542421,3
337,32,25,0.230411090830824,3
337,33,25,0.183553071599861,1
337,35,25,0.17918645690529,1
337,36,25,0.175420615489179,1
338,25,25,0.193880959341641,1
338,26,25,0.207958589523356,3
338,27,25,0.206392077881076,1
338,28,25,0.216131687599497,1
338,29,25,0.265184431849583,3
338,30,25,0.325548361512862,3
338,31,25,0.299250242297246,3
338,32,25,0.244758988316312,3
338,33,25,0.187354184730417,1
339,28,25,0.212319162685536,1
339,29,25,0.255655510268532,3
339,30,25,0.289241578292277,3
339,31,25,0.255857507078603,3
339,32,25,0.199512880547057,1
340,27,25,0.213382260402718,1
340,28,25,0.23042986315564,1
340,29,25,0.238528837635548,1
340,30,25,0.2342905554526,1
340,31,25,0.210061631638655,1
341,26,25,0.227289067139349,1
341,27,25,0.28203700969726,1
341,28,25,0.26871690288391,1
341,29,25,0.221872509487208,1
342,27,25,0.272683940283186,1
342,28,25,0.268774397544985,1
342,29,25,0.20932173823908,1
343,28,25,0.214988059670838,1
344,28,25,0.2180064940467,1
344,29,25,0.23420411325426,1
344,30,25,0.247309386473318,1
345,28,25,0.252915952085678,1
345,29,25,0.257872952862669,1
345,30,25,0.285248396249907,1
345,31,25,0.23085441918427,1
346,29,25,0.23114257554789,1
346,30,25,0.253573148330384,1
346,31,25,0.232576220585039,1
347,30,25,0.216580739509945,1
349,29,25,0.242766578082649,6
349,30,25,0.202586383549546,6
350,28,25,0.269157263467059,6
350,29,25,0.365565964630396,6
350,30,25,0.301659600703936,6
350,31,25,0.182828735440614,6
351,28,25,0.257578531206199,6
351,29,25,0.432384252954274,6
351,30,25,0.396643112620099,6
351,31,25,0.220183188683581,6
352,28,25,0.206844545082739,6
352,29,25,0.396150651180621,6
352,30,25,0.426254912248685,6
352,31,25,0.249226448316657,6
353,28,25,0.151990893373289,1
353,29,25,0.298911445408713,6
353,30,25,0.384043820682985,6
353,31,25,0.273007003278397,6
354,29,25,0.180580602333007,1
354,30,25,0.262662321725332,6
331,22,26,0.116825771344699,1
332,21,26,0.157925173843034,1
332,22,26,0.194736277807419,1
332,23,26,0.160782936432527,1
332,24,26,0.119751580667436,1
333,22,26,0.259810718436891,1
333,23,26,0.249846453217718,3
333,24,26,0.227460161452357,3
333,25,26,0.210347927257406,3
333,26,26,0.190950250842541,1
333,27,26,0.178482035426886,1
333,28,26,0.165347732232501,1
334,22,26,0.244382670331879,3
334,23,26,0.308911229656523,3
334,24,26,0.345210593451365,3
334,25,26,0.314318695567913,3
334,26,26,0.260455690294421,3
334,27,26,0.241153783355972,3
334,28,26,0.227968168355297,1
334,29,26,0.207965844072972,1
334,30,26,0.207134538637496,1
334,31,26,0.220566360804177,1
334,32,26,0.218514100536187,1
334,33,26,0.183194195154357,1
335,22,26,0.183550751557208,1
335,23,26,0.263534280903133,3
335,24,26,0.327941373629185,3
335,25,26,0.335282907178791,3
335,26,26,0.31216668524271,3
335,27,26,0.301440550991523,3
335,28,26,0.281673269405991,3
335,29,26,0.26246901624256,3
335,30,26,0.279959829580266,3
335,31,26,0.27757951292577,3
335,32,26,0.264713781166417,1
335,33,26,0.234568253958982,1
335,34,26,0.174045866560191,1
336,23,26,0.172610619869232,1
336,24,26,0.22635341866882,3
336,25,26,0.306165547503215,3
336,26,26,0.36156533960855,3
336,27,26,0.36192309725176,3
336,28,26,0.320243848966307,3
336,29,26,0.292021272035341,3
336,30,26,0.323977327553938,3
336,31,26,0.287820463840828,3
336,32,26,0.229004179280083,1
336,33,26,0.207092071257766,1
337,24,26,0.179973422439302,1
337,25,26,0.23179437798785,3
337,26,26,0.28603318306366,3
337,27,26,0.293388095133337,3
337,28,26,0.268842491385693,3
337,29,26,0.269292179246919,3
337,30,26,0.331101436598675,3
337,31,26,0.299122675281931,3
337,32,26,0.211774529728532,3
337,33,26,0.174449035799695,1
338,25,26,0.170775159932199,1
338,26,26,0.192877075708009,1
338,27,26,0.217040013740305,3
338,28,26,0.223014041133673,1
338,29,26,0.237324794382981,1
338,30,26,0.298970235525077,3
338,31,26,0.286899819097913,3
338,32,26,0.222405318470488,1
339,29,26,0.210539183565449,1
339,30,26,0.239079594563007,1
339,31,26,0.231281636784674,1
340,27,26,0.194508666313235,1
340,28,26,0.209862437722754,1
340,29,26,0.194364941437413,1
340,30,26,0.191745036215748,1
341,26,26,0.191658417364415,1
341,27,26,0.266639793428113,1
341,28,26,0.267040395310772,1
341,29,26,0.208175919813296,1
342,27,26,0.270188210339354,1
342,28,26,0.277057326675855,1
342,29,26,0.214628111530504,1
343,28,26,0.194230390740406,1
344,30,26,0.239487757193805,1
345,29,26,0.235159264215314,1
345,30,26,0.273645050338566,1
345,31,26,0.220303925116466,1
346,30,26,0.241835593251158,1
349,29,26,0.232320992339478,6
349,30,26,0.182128694956458,1
350,28,26,0.245566221837155,6
350,29,26,0.336974936661658,6
350,30,26,0.266317790350865,6
350,31,26,0.165345565289109,1
351,28,26,0.226180604933339,6
351,29,26,0.388564959639737,6
351,30,26,0.343026879802194,6
351,31,26,0.194863032218962,6
352,28,26,0.190397692054544,6
352,29,26,0.370054670097472,6
352,30,26,0.405483676368323,6
352,31,26,0.247410667523143,6
353,29,26,0.28896701243232,6
353,30,26,0.404063763157233,6
353,31,26,0.311577606392445,6
353,32,26,0.162613226325272,1
354,30,26,0.272088996553524,6
354,31,26,0.291572596984613,1
329,17,27,0.116550793294422,1
330,18,27,0.153280330683099,1
331,19,27,0.120988928897782,1
332,20,27,0.135758968154317,1
332,21,27,0.167819366707967,1
332,22,27,0.190631604172176,1
332,23,27,0.160643333459895,1
332,24,27,0.120229344577822,1
333,21,27,0.191188178871567,1
333,22,27,0.245154219947958,1
333,23,27,0.244516290656451,3
333,24,27,0.216490622929332,3
333,25,27,0.190583684103369,1
333,26,27,0.165822222174068,1
333,27,27,0.156152366834498,1
334,22,27,0.245201963363771,3
334,23,27,0.315016145141492,3
334,24,27,0.31770110577237,3
334,25,27,0.285727926690232,3
334,26,27,0.23899915856646,3
334,27,27,0.224022470637682,1
334,28,27,0.218363474416737,1
334,29,27,0.195544276824569,1
334,30,27,0.181329351936008,1
334,31,27,0.183999862351987,1
334,32,27,0.188350802037567,1
335,22,27,0.20824154051209,1
335,23,27,0.280246502058738,3
335,24,27,0.297181211771703,3
335,25,27,0.307631790906168,3
335,26,27,0.299069490953906,3
335,27,27,0.288226035561048,3
335,28,27,0.27059889321953,3
335,29,27,0.245354497335555,1
335,30,27,0.249504005500644,1
335,31,27,0.241069343224896,1
335,32,27,0.231017057707304,1
335,33,27,0.221582374610056,1
336,23,27,0.174325520026373,1
336,24,27,0.195935669197814,1
336,25,27,0.266190293996747,3
336,26,27,0.342344363295031,3
336,27,27,0.349162886214085,3
336,28,27,0.30162099613634,3
336,29,27,0.268233156325463,3
336,30,27,0.298804134603363,3
336,31,27,0.273667402830725,1
336,32,27,0.211009575157558,1
337,25,27,0.194245347360555,1
337,26,27,0.275393985639195,3
337,27,27,0.305358690842092,3
337,28,27,0.26847608952265,3
337,29,27,0.243209623791305,1
337,30,27,0.30360280719037,3
337,31,27,0.291349307600347,3
337,32,27,0.19240177316267,1
338,26,27,0.185972899640655,1
338,27,27,0.227144706312749,3
338,28,27,0.228145857713409,1
338,29,27,0.207253979615092,1
338,30,27,0.252660017228142,1
338,31,27,0.255652636713165,1
338,32,27,0.188565670962459,1
339,30,27,0.186256027282383,1
339,31,27,0.196015999202565,1
341,27,27,0.224525060182142,1
341,28,27,0.24026133243088,1
342,28,27,0.246390037185691,1
345,30,27,0.230954734531063,1
350,29,27,0.287498602085975,6
350,30,27,0.218499850528013,1
351,28,27,0.186802968505174,1
351,29,27,0.302065784821202,6
351,30,27,0.268135667426573,6
351,31,27,0.166383825595351,1
352,28,27,0.165521099480697,1
352,29,27,0.290337509912588,6
352,30,27,0.332757499531987,6
352,31,27,0.228240567271863,6
353,29,27,0.243489701224672,6
353,30,27,0.355200909098703,6
353,31,27,0.302712923622123,6
354,30,27,0.246570081917055,6
330,17,28,0.148565403392058,1
331,18,28,0.157087143816924,1
331,19,28,0.165401587841902,1
332,19,28,0.128280304773993,1
332,20,28,0.159065198050618,1
332,21,28,0.172648317618126,1
332,24,28,0.125655111739378,1
333,21,28,0.188914313311185,1
333,22,28,0.231378654608914,1
333,23,28,0.238356754065775,1
333,24,28,0.202806822932178,1
333,25,28,0.163819071438377,1
333,26,28,0.137696533521813,1
334,21,28,0.173827499906021,1
334,22,28,0.25067333055148,1
334,23,28,0.306725985014739,3
334,24,28,0.277225618094693,3
334,25,28,0.241793432069952,1
334,26,28,0.214116642228884,1
334,27,28,0.205379314490285,1
334,28,28,0.20156441064934,1
335,22,28,0.227918729070742,1
335,23,28,0.279997162246306,1
335,24,28,0.255461780818575,1
335,25,28,0.262268197119115,3
335,26,28,0.272475324874277,3
335,27,28,0.265854040911326,1
335,28,28,0.24629469167646,1
335,29,28,0.218755243649702,1
335,30,28,0.21616249588163,1
335,31,28,0.203519888630415,1
335,32,28,0.188753005574038,1
336,23,28,0.181831552843882,1
336,24,28,0.174552907760098,1
336,25,28,0.217768883993062,1
336,26,28,0.287893527519098,3
336,27,28,0.299058915328006,3
336,28,28,0.25608790969009,3
336,29,28,0.23060284176725,1
336,30,28,0.268124196758837,1
336,31,28,0.255152944277804,1
336,32,28,0.190261480819395,1
337,26,28,0.246111396530008,1
337,27,28,0.28403752241491,3
337,28,28,0.243343880066655,1
337,29,28,0.212209543614399,1
337,30,28,0.267812298232839,1
337,31,28,0.268972578650388,1
337,32,28,0.175361825372816,1
338,27,28,0.216766178046056,1
338,28,28,0.212988936623407,1
338,30,28,0.206583828817502,1
338,31,28,0.21753516030529,1
351,29,28,0.209878689798191,1
351,30,28,0.198439984477148,1
352,29,28,0.202331178857717,1
352,30,28,0.244214590896633,6
353,30,28,0.26389818607053,6
333,24,29,0.196304508872173,1
334,21,29,0.196732939489802,1
334,22,29,0.251421020236519,1
334,23,29,0.279897906817477,1
334,24,29,0.239908426856569,1
334,25,29,0.201034781419949,1
335,22,29,0.227104664967469,1
335,23,29,0.260138233087549,1
335,24,29,0.225451240052199,1
335,25,29,0.219428903953437,1
335,26,29,0.242686919359274,1
335,27,29,0.241795127938693,1
335,28,29,0.217601228525002,1
336,23,29,0.190074464183205,1
336,26,29,0.231296593404823,1
336,27,29,0.243509721897312,1
336,28,29,0.209353111810793,1
336,29,29,0.191948834886357,1
336,30,29,0.226513607603672,1
336,31,29,0.228202645762509,1
337,27,29,0.240700915740856,1
337,28,29,0.207934211410201,1
337,30,29,0.221151529734844,1
337,31,29,0.23268868965781,1
333,22,30,0.237745016524828,1
333,23,30,0.255988371616471,1
333,24,30,0.198381971633957,1
334,21,30,0.207633100493696,1
334,22,30,0.249205532602182,1
334,23,30,0.25465883407705,1
334,24,30,0.213768117648821,1
335,22,30,0.213726121343742,1
335,23,30,0.233888092825071,1
336,27,30,0.196434596136868,1
332,23,31,0.200284053303416,1
333,22,31,0.230315698214128,1
333,23,31,0.258366921741028,1
333,24,31,0.195377363299083,1
334,22,31,0.227824985215322,1
334,23,31,0.226863780945012,1
333,23,32,0.248190578714266,1
