x,y,z,signal,mito.p
772,727,41,0.210454884756769,1
773,727,41,0.208116964820805,1
771,727,42,0.210512308756647,1
772,726,42,0.180055377651597,1
772,727,42,0.275122128458477,1
772,728,42,0.222856702200456,1
773,726,42,0.17155907525785,1
773,727,42,0.256842359296361,1
773,728,42,0.232901332754979,1
774,727,42,0.221282347165247,1
770,727,43,0.181779287111426,1
771,726,43,0.218797145739851,1
771,727,43,0.267019573811227,1
771,728,43,0.186902530132526,1
772,726,43,0.232468415151306,1
772,727,43,0.323541112427712,1
772,728,43,0.229528932886843,1
773,726,43,0.198205130210215,1
773,727,43,0.311538860502454,1
773,728,43,0.247050672275344,1
773,729,43,0.127039411706902,1
774,726,43,0.173277272937543,1
774,727,43,0.280064879227294,1
774,728,43,0.240641466119981,1
775,727,43,0.239962247135372,1
782,723,43,0.145311643674612,1
782,724,43,0.174285890871412,1
769,730,44,0.123565789673271,1
769,731,44,0.139418758889767,1
770,725,44,0.167494454744753,1
770,726,44,0.233224254427796,1
770,727,44,0.204631742573909,1
770,730,44,0.115701115947582,1
770,731,44,0.12342577451032,1
771,725,44,0.214829307513669,1
771,726,44,0.306876564026723,2
771,727,44,0.284575748756669,1
771,728,44,0.175764005355553,1
772,725,44,0.175095986170756,1
772,726,44,0.265413350575922,1
772,727,44,0.312131566627527,1
772,728,44,0.216866587607778,1
773,726,44,0.20271675345903,1
773,727,44,0.312575742915343,1
773,728,44,0.23213230338828,1
774,726,44,0.189163476470622,1
774,727,44,0.302410941217515,1
774,728,44,0.223245126803403,1
775,725,44,0.12989716251953,1
775,726,44,0.196527880694503,1
775,727,44,0.252356386062258,1
775,728,44,0.176907833490939,1
776,725,44,0.149628559993571,1
776,726,44,0.194002802799955,1
776,727,44,0.190122372475146,1
777,725,44,0.136850660102775,1
777,726,44,0.159952184509765,1
781,723,44,0.133924332597923,1
781,724,44,0.151135951767232,1
782,722,44,0.128437396393019,1
782,723,44,0.163500766297134,1
782,724,44,0.175862754379134,1
782,725,44,0.117043619816754,1
783,723,44,0.140604571553366,1
783,724,44,0.127567557051144,1
762,732,45,0.240735068653006,1
762,733,45,0.222785310837195,1
762,734,45,0.160870450325696,1
762,738,45,0.136219773377292,1
762,739,45,0.129107770951069,1
763,733,45,0.166977638745852,1
763,734,45,0.144590663922249,1
763,739,45,0.131264963097425,1
763,740,45,0.150179623119552,1
764,740,45,0.115410392227118,1
765,740,45,0.12627797841894,1
765,745,45,0.211777780143619,1
766,728,45,0.121677110077615,1
766,729,45,0.127093161324507,1
766,730,45,0.13497246191809,1
766,740,45,0.134584590827856,1
766,741,45,0.115064988516613,1
767,727,45,0.139486723184947,1
767,730,45,0.121144242210003,1
768,726,45,0.152207493497521,1
768,727,45,0.128874212139424,1
768,731,45,0.116510575296148,1
769,725,45,0.140163798779898,1
769,726,45,0.177410481919731,1
769,727,45,0.144800080158063,1
769,730,45,0.130652707374363,1
769,731,45,0.152907922618263,1
769,741,45,0.1183252608411,1
770,724,45,0.1297324630449,1
770,725,45,0.232273908428176,1
770,726,45,0.294676107442329,2
770,727,45,0.208751596589759,1
770,728,45,0.11723640711741,1
770,730,45,0.121953937095894,1
770,731,45,0.134036601463968,1
770,741,45,0.12269575012467,1
771,724,45,0.161449518839641,1
771,725,45,0.308285030123811,2
771,726,45,0.371143064523378,2
771,727,45,0.262714611011521,2
771,728,45,0.154947970275943,1
772,725,45,0.218143718092347,1
772,726,45,0.271816762513085,2
772,727,45,0.259927120982993,1
772,728,45,0.194818515664504,1
772,729,45,0.126327111504971,1
773,725,45,0.125326596055089,1
773,726,45,0.191220871452301,1
773,727,45,0.263272269182607,1
773,728,45,0.196497190181033,1
774,726,45,0.196760344257586,1
774,727,45,0.275565079952203,1
774,728,45,0.18298101032134,1
775,725,45,0.140458008452775,1
775,726,45,0.221391754252791,1
775,727,45,0.238573895925854,1
775,728,45,0.143815699014955,1
776,724,45,0.117213559996868,1
776,725,45,0.160246829926694,1
776,726,45,0.198041337554288,1
776,727,45,0.166819381217067,1
777,725,45,0.128534732192648,1
777,726,45,0.124332958295102,1
780,723,45,0.134343647921067,1
780,724,45,0.123269318842072,1
781,722,45,0.14973502286455,1
781,723,45,0.186476207573957,1
781,724,45,0.182546455733256,1
782,722,45,0.150286674833845,1
782,723,45,0.17921167117595,1
782,724,45,0.182807336874621,1
783,723,45,0.131474567763099,1
783,724,45,0.116075314096089,1
761,730,46,0.148173963911348,1
761,731,46,0.160317585339177,1
761,732,46,0.183326107833321,1
761,733,46,0.153349814194026,1
761,734,46,0.123687456478591,1
762,730,46,0.128683521120962,1
762,731,46,0.162706581544105,1
762,732,46,0.206973713751866,1
762,733,46,0.188804164281066,1
762,734,46,0.148383886552411,1
762,738,46,0.118821961952431,1
762,739,46,0.116397929570383,1
763,732,46,0.133621372713415,1
763,733,46,0.135715593955886,1
763,734,46,0.116962712745556,1
763,740,46,0.124671660968705,1
764,727,46,0.113812012384741,1
764,745,46,0.151855176766523,1
765,727,46,0.123122767518348,1
765,728,46,0.118982645515666,1
765,729,46,0.115004632077037,1
765,730,46,0.115620173545785,1
765,745,46,0.163735561679735,1
765,746,46,0.148292026995592,1
766,726,46,0.205599918749044,1
766,727,46,0.145458548304324,1
766,728,46,0.118543038651958,1
766,729,46,0.124814855885545,1
766,730,46,0.145892455164764,1
766,731,46,0.118511559088448,1
767,725,46,0.186342740348646,1
767,726,46,0.224537190354389,1
767,727,46,0.155274036372051,1
767,730,46,0.118075296854757,1
768,725,46,0.136468724553136,1
768,726,46,0.167164655382042,1
768,727,46,0.130483414921893,1
768,731,46,0.113781663400392,1
769,725,46,0.16152636289198,1
769,726,46,0.186796632551126,1
769,727,46,0.13777228232559,1
769,730,46,0.12834198022259,1
769,731,46,0.145844959063142,1
770,724,46,0.166164175262758,1
770,725,46,0.283111742958305,2
770,726,46,0.31249778006071,2
770,727,46,0.190593529563562,1
770,730,46,0.118660560000354,1
770,731,46,0.124774873424597,1
771,724,46,0.197965777180371,2
771,725,46,0.349798413024875,2
771,726,46,0.367075005165334,2
771,727,46,0.221475982400274,2
771,728,46,0.134379143395972,1
772,724,46,0.148491126696564,1
772,725,46,0.227460208559822,2
772,726,46,0.247618788303669,2
772,727,46,0.201790879787496,1
772,728,46,0.161835729391732,1
772,729,46,0.117907276303843,1
773,725,46,0.125034706424865,1
773,726,46,0.167100082824345,1
773,727,46,0.191927365659167,1
773,728,46,0.150394774689234,1
774,726,46,0.180827504334122,1
774,727,46,0.206395681602151,1
774,728,46,0.133571603676606,1
775,725,46,0.14480216466339,1
775,726,46,0.217406015189896,1
775,727,46,0.196354690099302,1
776,725,46,0.156845600289956,1
776,726,46,0.181454410478811,1
776,727,46,0.136392269137384,1
777,725,46,0.116797612857474,1
780,722,46,0.144168604589266,1
780,723,46,0.175170887040162,1
780,724,46,0.151087643061838,1
781,721,46,0.146513873289775,1
781,722,46,0.202584946771862,1
781,723,46,0.23133296036783,1
781,724,46,0.193672803230517,1
782,722,46,0.175640913549417,1
782,723,46,0.185792395611506,1
782,724,46,0.170404801042092,1
783,723,46,0.133675381422078,1
783,724,46,0.119024995126733,1
758,732,47,0.147664414238929,1
758,733,47,0.131096871885313,1
759,731,47,0.11809253818696,1
760,730,47,0.137164607803502,1
760,731,47,0.117247818900815,1
761,729,47,0.130264906945327,1
761,730,47,0.144178414718859,1
761,731,47,0.150258104156301,1
761,732,47,0.159885350793747,1
761,733,47,0.131987862478989,1
762,729,47,0.117294843927787,1
762,730,47,0.140686832964184,1
762,731,47,0.151608215881076,1
762,732,47,0.159258138450536,1
762,733,47,0.139682054288715,1
762,734,47,0.116500482521764,1
764,726,47,0.126271571803695,1
764,727,47,0.125105096754494,1
764,728,47,0.119229606401113,1
764,745,47,0.114577956212481,1
765,725,47,0.195289708083519,1
765,726,47,0.159060451973515,1
765,727,47,0.13040592314191,1
765,728,47,0.118033017904888,1
766,725,47,0.237072204155463,1
766,726,47,0.232434568437678,1
766,727,47,0.153977780256677,1
766,728,47,0.114845632605677,1
766,729,47,0.116207580081042,1
766,730,47,0.1352570616681,1
767,724,47,0.126777564862504,1
767,725,47,0.216450628691518,1
767,726,47,0.250985935689454,1
767,727,47,0.164090693081769,1
768,725,47,0.156003389476324,1
768,726,47,0.1812256566286,1
768,727,47,0.132819956964504,1
769,724,47,0.140297195344011,1
769,725,47,0.192568062514244,1
769,726,47,0.194239682687884,1
769,727,47,0.131283994513299,1
769,731,47,0.117189099445649,1
770,723,47,0.123692014125833,1
770,724,47,0.216042065647267,1
770,725,47,0.312235933216312,2
770,726,47,0.296145153739452,1
770,727,47,0.166350532394438,1
771,723,47,0.139713027446976,1
771,724,47,0.229876892177325,2
771,725,47,0.335441518013565,2
771,726,47,0.316387843862119,2
771,727,47,0.179002042956544,1
771,747,47,0.120853047414888,1
772,723,47,0.128428869941848,1
772,724,47,0.157403588213298,1
772,725,47,0.211657255694327,2
772,726,47,0.213191592937988,1
772,727,47,0.153168368015576,1
772,728,47,0.118829664022964,1
773,722,47,0.129754497561671,1
773,725,47,0.124133623056805,1
773,726,47,0.143664908019377,1
773,727,47,0.132156165674693,1
774,726,47,0.151079670123381,1
774,727,47,0.13879279489438,1
775,725,47,0.136151585321653,1
775,726,47,0.181054432770063,1
775,727,47,0.144371543548637,1
776,725,47,0.135758037781883,1
776,726,47,0.146553726205195,1
779,723,47,0.123810336301135,1
779,724,47,0.144135782463003,1
780,721,47,0.122395628464931,1
780,722,47,0.165578075959657,1
780,723,47,0.213663963043628,1
780,724,47,0.197468451895129,1
780,725,47,0.126944996570105,1
781,721,47,0.193518337852667,1
781,722,47,0.266324408949702,1
781,723,47,0.272428405839102,1
781,724,47,0.198100504530372,1
781,725,47,0.117547634362032,1
782,721,47,0.172336843059313,1
782,722,47,0.225045456348386,1
782,723,47,0.208979455398134,1
782,724,47,0.157131589710185,1
782,731,47,0.128343558322669,1
783,722,47,0.147749666973776,1
783,723,47,0.152422315314948,1
783,731,47,0.166812856833159,1
783,732,47,0.147411046738237,1
752,738,48,0.15824598745679,1
756,733,48,0.11506500029348,1
757,730,48,0.121130239516022,1
757,731,48,0.163193366534047,1
757,732,48,0.16602179294969,1
757,733,48,0.135425105772747,1
758,729,48,0.114535736146943,1
758,730,48,0.132384943078637,1
758,731,48,0.147535363338465,1
758,732,48,0.133529053858813,1
759,729,48,0.127182959929731,1
759,730,48,0.133290607647671,1
759,731,48,0.117570151730318,1
760,729,48,0.126432620449784,1
760,730,48,0.13474175310808,1
760,731,48,0.119734763302418,1
761,729,48,0.124202270410228,1
761,730,48,0.158032190226727,1
761,731,48,0.151479600724664,1
761,732,48,0.133597807204032,1
762,729,48,0.116925344748917,1
762,730,48,0.152676095005959,1
762,731,48,0.142575159253852,1
762,732,48,0.120187112735418,1
763,726,48,0.115935958437649,1
763,727,48,0.120260553273408,1
763,747,48,0.117853856438493,1
764,725,48,0.14912184854592,1
764,726,48,0.140091806796458,1
764,727,48,0.138136799890032,1
764,728,48,0.120134458366375,1
765,724,48,0.185870005160152,1
765,725,48,0.196995316293181,1
765,726,48,0.171347609847307,1
765,727,48,0.138260091902896,1
766,724,48,0.175394906590137,1
766,725,48,0.244233127684124,1
766,726,48,0.231196772686413,1
766,727,48,0.1545700153071,1
767,724,48,0.131884155394714,1
767,725,48,0.228966658184182,1
767,726,48,0.248499250378909,1
767,727,48,0.161318300995786,1
768,725,48,0.18231573514638,1
768,726,48,0.193894078770653,1
768,727,48,0.131297007950515,1
769,724,48,0.158581804798159,1
769,725,48,0.213977533884635,1
769,726,48,0.191328935977092,1
769,727,48,0.119736576939822,1
770,723,48,0.145157943793069,1
770,724,48,0.246361183863357,1
770,725,48,0.303406628152231,1
770,726,48,0.251714923710874,1
770,727,48,0.136759990009449,1
771,723,48,0.161151257924771,1
771,724,48,0.238584353783092,1
771,725,48,0.285429312469374,2
771,726,48,0.24799863934798,1
771,727,48,0.138871169939332,1
772,722,48,0.135032135299423,1
772,723,48,0.137952115073362,1
772,724,48,0.155106498672653,1
772,725,48,0.180992203808752,1
772,726,48,0.171805635729844,1
773,721,48,0.134546162913254,1
773,722,48,0.129314148755388,1
773,725,48,0.118459764430642,1
773,726,48,0.120411756459305,1
774,726,48,0.116679667541892,1
775,726,48,0.125559695568949,1
779,723,48,0.133474479860569,1
779,724,48,0.183778692803647,1
779,725,48,0.136833195010114,1
780,721,48,0.128401877364383,1
780,722,48,0.165013822743465,1
780,723,48,0.217970951464331,1
780,724,48,0.235957217565545,1
780,725,48,0.166883152947858,1
781,721,48,0.213651832871382,1
781,722,48,0.289782466205811,1
781,723,48,0.272202195792003,1
781,724,48,0.195200969396258,1
781,725,48,0.133028160183094,1
782,721,48,0.183395014277802,1
782,722,48,0.258808083151082,1
782,723,48,0.222263996075383,1
782,724,48,0.15499888166878,1
782,725,48,0.118693700102006,1
782,731,48,0.134460910178406,1
782,732,48,0.116384362620453,1
783,722,48,0.15119422370148,1
783,723,48,0.166805213646957,1
783,725,48,0.135628515806769,1
783,730,48,0.136546263440584,1
783,731,48,0.196937397664921,1
783,732,48,0.193763567538773,1
783,733,48,0.149712823471652,1
784,731,48,0.19545789351056,1
784,732,48,0.219885493058291,1
784,733,48,0.189775791078016,1
784,734,48,0.121440430396412,1
751,738,49,0.216592233731413,1
751,739,49,0.154019658793094,1
752,737,49,0.155615070865173,1
752,738,49,0.212369850317914,1
752,739,49,0.154112884466398,1
753,738,49,0.131985236237813,1
753,739,49,0.116423956444815,1
755,732,49,0.118133380359145,1
756,731,49,0.136277232707768,1
756,732,49,0.138358475843622,1
756,733,49,0.114617420491314,1
757,729,49,0.12764447176468,1
757,730,49,0.132700527763774,1
757,731,49,0.163423627823139,1
757,732,49,0.148606198456778,1
757,733,49,0.114862661954287,1
758,728,49,0.123941742574851,1
758,729,49,0.15273495578352,1
758,730,49,0.144741431364094,1
758,731,49,0.148586637081922,1
758,732,49,0.12662011993749,1
759,728,49,0.118505623547854,1
759,729,49,0.147074758322217,1
759,730,49,0.136678117235218,1
759,731,49,0.126249925923511,1
759,732,49,0.117270760236287,1
759,733,49,0.115742370310087,1
760,729,49,0.126397631380129,1
760,730,49,0.139965923873017,1
760,731,49,0.133958167534685,1
760,732,49,0.120496903202356,1
760,733,49,0.11831899554825,1
761,729,49,0.124900379488317,1
761,730,49,0.171907446738651,1
761,731,49,0.158607643242731,1
761,732,49,0.118141565281195,1
762,727,49,0.115776699875231,1
762,729,49,0.11555565987242,1
762,730,49,0.154266819885267,1
762,731,49,0.135958621368003,1
763,726,49,0.123561161364831,1
763,727,49,0.129123116207804,1
764,724,49,0.140591157702697,1
764,725,49,0.15255776105379,1
764,726,49,0.165388621512152,1
764,727,49,0.150763190396408,1
764,728,49,0.116199430489591,1
765,723,49,0.115737082497137,1
765,724,49,0.164940464643539,1
765,725,49,0.196513395149005,1
765,726,49,0.18787256705253,1
765,727,49,0.144826012817564,1
766,724,49,0.165152306913802,1
766,725,49,0.224487068011591,1
766,726,49,0.209925844370691,1
766,727,49,0.146498645801703,1
767,724,49,0.137158943130832,1
767,725,49,0.226768647419373,1
767,726,49,0.228541466204775,1
767,727,49,0.150004583556348,1
768,724,49,0.121134302534881,1
768,725,49,0.207108134903343,1
768,726,49,0.201629513166018,1
768,727,49,0.126828911999393,1
769,724,49,0.160069788296226,1
769,725,49,0.213877124322913,1
769,726,49,0.178830665998746,1
770,723,49,0.15580804659569,1
770,724,49,0.237079670688671,1
770,725,49,0.259532007120011,1
770,726,49,0.196973717520463,1
771,722,49,0.11827731721856,1
771,723,49,0.170969584217266,1
771,724,49,0.224705057806041,1
771,725,49,0.2308641468758,1
771,726,49,0.185481568780338,1
772,721,49,0.126795312599956,1
772,722,49,0.134682327040938,1
772,723,49,0.141503075787715,1
772,724,49,0.147695693595712,1
772,725,49,0.152896016206475,1
772,726,49,0.135488382875155,1
773,721,49,0.129906890211059,1
773,722,49,0.125152745955377,1
779,723,49,0.129640733033611,1
779,724,49,0.192681438405718,1
779,725,49,0.151149247849238,1
780,722,49,0.145065248078746,1
780,723,49,0.186426073454293,1
780,724,49,0.231395707511257,1
780,725,49,0.181717034596382,1
781,721,49,0.196643988818949,1
781,722,49,0.258657975213748,1
781,723,49,0.232528642045353,1
781,724,49,0.183426646940573,1
781,725,49,0.141067190413744,1
782,722,49,0.253037936866387,1
782,723,49,0.212530887187137,1
782,724,49,0.161568535850053,1
782,725,49,0.135620177785457,1
782,726,49,0.116593778856267,1
782,731,49,0.132891030352376,1
782,732,49,0.121508700890114,1
783,725,49,0.169643497299659,1
783,726,49,0.12025654913888,1
783,729,49,0.114193370867933,1
783,730,49,0.153598518055679,1
783,731,49,0.211044316913021,1
783,732,49,0.225773219575714,1
783,733,49,0.188078426674734,1
783,734,49,0.124508728024014,1
784,729,49,0.122851499180942,1
784,730,49,0.15962809692719,1
784,731,49,0.233953501540273,1
784,732,49,0.293392405466388,1
784,733,49,0.269485366961029,1
784,734,49,0.175097917576822,1
784,735,49,0.127320195752245,1
784,736,49,0.117160811412895,1
784,737,49,0.123211117569021,1
785,732,49,0.179040494424879,1
785,733,49,0.181466128460738,1
785,734,49,0.154286970103436,1
750,737,50,0.140090570225501,1
750,738,50,0.179373838624334,1
750,739,50,0.146520786310269,1
751,737,50,0.177639883497586,1
751,738,50,0.250366778722764,1
751,739,50,0.178780991176866,1
752,737,50,0.163608866152523,1
752,738,50,0.233298919759876,1
752,739,50,0.172026993708044,1
753,738,50,0.143760394851003,1
753,739,50,0.124589905963136,1
754,731,50,0.12063826092806,1
754,732,50,0.124875023895262,1
755,731,50,0.129006760769167,1
755,732,50,0.136640395932591,1
755,733,50,0.115123731525512,1
756,729,50,0.114466558834539,1
756,730,50,0.123443616462702,1
756,731,50,0.145102392314926,1
756,732,50,0.139012928078489,1
757,728,50,0.128266537617336,1
757,729,50,0.167494725612677,1
757,730,50,0.154477013394254,1
757,731,50,0.157695996025637,1
757,732,50,0.132754324488844,1
758,728,50,0.152264611298876,1
758,729,50,0.197356347905211,1
758,730,50,0.158206593839154,1
758,731,50,0.14498637840541,1
758,732,50,0.128848149934393,1
759,728,50,0.135446162809617,1
759,729,50,0.161605267895914,1
759,730,50,0.138926497657016,1
759,731,50,0.140028141057463,1
759,732,50,0.136960785579161,1
759,733,50,0.131963943663617,1
760,727,50,0.116253462751986,1
760,729,50,0.123581794434517,1
760,730,50,0.143641578047318,1
760,731,50,0.153291589367242,1
760,732,50,0.130775834511098,1
760,733,50,0.12438603663133,1
761,726,50,0.117720989833361,1
761,727,50,0.122850698354037,1
761,729,50,0.11738001422457,1
761,730,50,0.161267519148478,1
761,731,50,0.154854732825772,1
762,727,50,0.117481224613198,1
762,730,50,0.131621095533091,1
762,731,50,0.118220482061995,1
763,726,50,0.122092586142359,1
763,727,50,0.124433462071754,1
764,724,50,0.121481143023069,1
764,725,50,0.148365149558193,1
764,726,50,0.174118494494409,1
764,727,50,0.146170718960726,1
765,724,50,0.141669365139289,1
765,725,50,0.180260719091685,1
765,726,50,0.18792308980878,1
765,727,50,0.138598311724982,1
766,724,50,0.145653596763303,1
766,725,50,0.187228560898034,1
766,726,50,0.176623504608853,1
766,727,50,0.125842528789021,1
767,724,50,0.136793565855153,1
767,725,50,0.203503306802723,1
767,726,50,0.19149792223104,1
767,727,50,0.124655915298517,1
768,724,50,0.128791479653956,1
768,725,50,0.204481940835097,1
768,726,50,0.186784525932612,1
769,724,50,0.147111761236002,1
769,725,50,0.187176848678292,1
769,726,50,0.152160727561607,1
770,721,50,0.131759226397441,1
770,722,50,0.120931599112835,1
770,723,50,0.153909380217446,1
770,724,50,0.198159977704979,1
770,725,50,0.198204447151972,1
770,726,50,0.14160533431744,1
771,721,50,0.119430142879768,1
771,722,50,0.13056558211778,1
771,723,50,0.17073577809143,1
771,724,50,0.195997403530742,1
771,725,50,0.178894579051932,1
771,726,50,0.128922520844818,1
772,720,50,0.133250530971792,1
772,721,50,0.119421051139016,1
772,722,50,0.13115549712555,1
772,723,50,0.140331348256162,1
772,724,50,0.137766629429786,1
772,725,50,0.126936046151749,1
773,721,50,0.116705729746923,1
777,720,50,0.121750691938,1
779,723,50,0.12578624714517,1
779,724,50,0.177908549147548,1
779,725,50,0.148568924675069,1
780,721,50,0.123689458545855,1
780,722,50,0.133371279181544,1
780,723,50,0.158400017090588,1
780,724,50,0.204782698445614,1
780,725,50,0.177913283447784,1
781,722,50,0.209053720316762,1
781,723,50,0.192450729595708,1
781,724,50,0.176500530571379,1
781,725,50,0.150183544816017,1
781,726,50,0.123083468115642,1
782,723,50,0.197233114776679,1
782,724,50,0.176622621343884,1
782,725,50,0.155615070865173,1
782,726,50,0.129395303140777,1
782,727,50,0.120516087717492,1
782,731,50,0.127112016087388,1
782,732,50,0.126005332188182,1
783,724,50,0.198988480246285,1
783,725,50,0.195451475118449,1
783,726,50,0.13683339521684,1
783,729,50,0.130625844342426,1
783,730,50,0.171191460377581,1
783,731,50,0.21160162177812,1
783,732,50,0.233394877666153,1
783,733,50,0.202066882425138,1
783,734,50,0.143040086380016,1
784,726,50,0.125163886870857,1
784,728,50,0.12910338995682,1
784,729,50,0.162860458078643,1
784,730,50,0.202837536999381,1
784,731,50,0.252130576428612,1
784,732,50,0.315381369317909,1
784,733,50,0.304806614905612,1
784,734,50,0.23098203330705,1
784,735,50,0.18768797645079,1
784,736,50,0.18235376264753,1
784,737,50,0.178963921240464,1
784,738,50,0.145702694518736,1
785,729,50,0.155139626997439,1
785,730,50,0.152938883999657,1
785,731,50,0.157651750339103,1
785,732,50,0.191598897082343,1
785,733,50,0.219478225469329,1
785,734,50,0.22841811530758,1
785,735,50,0.238204926705966,3
785,736,50,0.235414822213129,3
785,737,50,0.212179300621847,1
749,737,51,0.12352232125991,1
749,738,51,0.142342365938514,1
749,739,51,0.119528020415245,1
750,736,51,0.113834906612748,1
750,737,51,0.165865207735913,1
750,738,51,0.224355261324423,1
750,739,51,0.179479006040025,1
751,737,51,0.184373565872111,1
751,738,51,0.259783301892241,1
751,739,51,0.201379655171472,1
752,732,51,0.134271408623436,1
752,737,51,0.154999152536704,1
752,738,51,0.214794071129823,1
752,739,51,0.170697432614891,1
753,730,51,0.128010920735189,1
753,731,51,0.142560002426977,1
753,732,51,0.135799527681713,1
753,738,51,0.138273482199832,1
753,739,51,0.12047032281521,1
754,729,51,0.121973062726699,1
754,730,51,0.117824755801967,1
754,731,51,0.144536537444923,1
754,732,51,0.147196872648454,1
754,733,51,0.124098104028169,1
755,730,51,0.125840750482216,1
755,731,51,0.155754826937066,1
755,732,51,0.157755775398767,1
755,733,51,0.128773484602313,1
756,729,51,0.135026470626753,1
756,730,51,0.158466791922276,1
756,731,51,0.164232474774659,1
756,732,51,0.142741660589019,1
757,728,51,0.13743051766676,1
757,729,51,0.201985669155417,1
757,730,51,0.179277786503127,1
757,731,51,0.152561882956981,1
757,732,51,0.128384388717988,1
758,728,51,0.16940784220582,1
758,729,51,0.219393573354661,1
758,730,51,0.161285172671,1
758,731,51,0.141853979294762,1
758,732,51,0.144939718461293,1
758,733,51,0.12650705024454,1
759,727,51,0.118682806500717,1
759,728,51,0.142196815648422,1
759,729,51,0.157905565360713,1
759,730,51,0.138232216060461,1
759,731,51,0.154147814651722,1
759,732,51,0.155970072721678,1
759,733,51,0.142264779943601,1
760,726,51,0.144591829832008,1
760,727,51,0.150656350665709,1
760,728,51,0.117968033156872,1
760,729,51,0.114149042743335,1
760,730,51,0.140080748319041,1
760,731,51,0.162386062352006,1
760,732,51,0.133801676535838,1
760,733,51,0.119014914129215,1
761,725,51,0.114418556327668,1
761,726,51,0.149633482723667,1
761,727,51,0.143800801279137,1
761,730,51,0.129616884879436,1
761,731,51,0.133943269798867,1
762,726,51,0.113763892109208,1
763,726,51,0.114287468029341,1
764,725,51,0.14050366736326,1
764,726,51,0.166922829210284,1
764,727,51,0.133897940640637,1
765,724,51,0.118672360420346,1
765,725,51,0.162013477634176,1
765,726,51,0.182349193223422,1
765,727,51,0.132501946244918,1
766,724,51,0.123862213397005,1
766,725,51,0.158014784018397,1
766,726,51,0.155107016854768,1
767,724,51,0.132207948555633,1
767,725,51,0.174978123293238,1
767,726,51,0.159243205384119,1
768,721,51,0.125837912257447,1
768,724,51,0.130832952312454,1
768,725,51,0.17860495058003,1
768,726,51,0.16079123912324,1
769,721,51,0.134204610238016,1
769,722,51,0.123026279653089,1
769,723,51,0.115229216916592,1
769,724,51,0.128845064395434,1
769,725,51,0.150810286084577,1
769,726,51,0.126955866617662,1
770,720,51,0.154325150703847,1
770,721,51,0.136739533592757,1
770,722,51,0.132799995176196,1
770,723,51,0.14393807243225,1
770,724,51,0.154789100350112,1
770,725,51,0.14619689893442,1
771,720,51,0.166053036975874,1
771,721,51,0.137006279613519,1
771,722,51,0.143132711433142,1
771,723,51,0.165188909414135,1
771,724,51,0.168841563368632,1
771,725,51,0.143335002664869,1
772,720,51,0.136258413275487,1
772,721,51,0.117991645773721,1
772,722,51,0.126372052026615,1
772,723,51,0.138485736660414,1
772,724,51,0.133252097295005,1
777,720,51,0.116369453107769,1
779,721,51,0.115647213230716,1
779,723,51,0.121379096476936,1
779,724,51,0.144995988328278,1
779,725,51,0.12399740004479,1
780,721,51,0.138633559885695,1
780,722,51,0.140764890033747,1
780,723,51,0.143752198152087,1
780,724,51,0.169798386644694,1
780,725,51,0.156775021530467,1
781,722,51,0.168021481286701,1
781,723,51,0.168829739394908,1
781,724,51,0.181934070464665,1
781,725,51,0.166965826548995,1
781,726,51,0.137036404837409,1
781,727,51,0.115420155249246,1
782,723,51,0.188656529485646,1
782,724,51,0.206824194657844,1
782,725,51,0.184005715454518,1
782,726,51,0.144445443384411,1
782,727,51,0.125406325439661,1
782,731,51,0.123268835990556,1
782,732,51,0.134677498525772,1
782,733,51,0.127990688078957,1
783,724,51,0.208788905702067,1
783,725,51,0.210042882867571,1
783,726,51,0.15094082087019,1
783,727,51,0.117581575290589,1
783,728,51,0.115895446017719,1
783,729,51,0.146977516737518,1
783,730,51,0.191439921164715,1
783,731,51,0.213610519624546,1
783,732,51,0.230684361235493,1
783,733,51,0.208250184731924,1
783,734,51,0.158752274937255,1
783,735,51,0.123231126464795,1
783,736,51,0.116803783935393,1
784,726,51,0.148394921476095,1
784,727,51,0.130224064773141,1
784,728,51,0.156767272352469,1
784,729,51,0.214625944587112,1
784,730,51,0.259512834381741,1
784,731,51,0.26164908725989,1
784,732,51,0.289452101553519,1
784,733,51,0.297094251391248,1
784,734,51,0.281447765970867,1
784,735,51,0.262748928799799,3
784,736,51,0.267988126846083,3
784,737,51,0.24771085984408,1
784,738,51,0.18257099872254,1
784,739,51,0.12374119431933,1
785,727,51,0.159512342108732,1
785,728,51,0.196308359907439,1
785,729,51,0.207613692218101,1
785,730,51,0.195293453126989,1
785,731,51,0.1685075478878,1
785,732,51,0.186981859103645,1
785,733,51,0.245275333240563,1
785,734,51,0.319042396624317,3
785,735,51,0.344878650698995,3
785,736,51,0.345851914480354,3
785,737,51,0.304316179087131,3
785,738,51,0.218420191804639,1
786,733,51,0.12795372049577,1
786,734,51,0.179206689561523,1
786,735,51,0.201629206967496,3
786,736,51,0.203439146435345,3
786,737,51,0.197589317873543,1
748,737,52,0.120748669049237,1
748,738,52,0.11735760284808,1
749,736,52,0.130574344106277,1
749,737,52,0.138552629260764,1
749,738,52,0.162811843174727,1
749,739,52,0.121967256731633,1
750,736,52,0.128173264836567,1
750,737,52,0.178163082557999,1
750,738,52,0.25052607261578,1
750,739,52,0.193321334433889,1
751,732,52,0.124950478277382,1
751,736,52,0.116972511098283,1
751,737,52,0.176589810994487,1
751,738,52,0.244383871572237,1
751,739,52,0.197235823455919,1
752,730,52,0.138177536070422,1
752,731,52,0.152688354723734,1
752,732,52,0.162977885212109,1
752,733,52,0.119323950876712,1
752,737,52,0.136235672146741,1
752,738,52,0.17394397311332,1
752,739,52,0.146298757050692,1
753,729,52,0.161413104769169,1
753,730,52,0.141139841901694,1
753,731,52,0.160379378556437,1
753,732,52,0.157936244097317,1
753,733,52,0.121431797953444,1
753,738,52,0.116991801605215,1
754,730,52,0.123497636948231,1
754,731,52,0.163259917605275,1
754,732,52,0.16866173062086,1
754,733,52,0.141651299426448,1
754,734,52,0.12145645871139,1
755,730,52,0.147781111206687,1
755,731,52,0.183669650798957,1
755,732,52,0.175398781179136,1
755,733,52,0.135568053375396,1
756,729,52,0.15814500082862,1
756,730,52,0.202390298726337,1
756,731,52,0.180069333238113,1
756,732,52,0.137630971707351,1
757,728,52,0.135794899373273,1
757,729,52,0.216564982062891,1
757,730,52,0.195053122617246,1
757,731,52,0.138688039669008,1
757,732,52,0.116444200877914,1
758,728,52,0.162907695089207,1
758,729,52,0.202548956668575,1
758,730,52,0.147534468296629,1
758,731,52,0.12708116069779,1
758,732,52,0.14691392165972,1
758,733,52,0.134473346549176,1
759,727,52,0.128884976195185,1
759,728,52,0.131947161629198,1
759,729,52,0.130957339573879,1
759,730,52,0.125174544934822,1
759,731,52,0.150291420910947,1
759,732,52,0.156293335923616,1
759,733,52,0.135305123059302,1
760,726,52,0.165359991950276,1
760,727,52,0.167560581848797,1
760,730,52,0.120754121738314,1
760,731,52,0.148261100944797,1
760,732,52,0.123474518959765,1
761,725,52,0.119169344176467,1
761,726,52,0.161554957123256,1
761,727,52,0.14334296382646,1
764,725,52,0.122510240927361,1
764,726,52,0.142061829207363,1
764,727,52,0.113950272794619,1
765,725,52,0.138142900306754,1
765,726,52,0.160803239749957,1
765,727,52,0.118314767653263,1
766,725,52,0.133537415433856,1
766,726,52,0.134855682512267,1
767,724,52,0.121258100952993,1
767,725,52,0.14123822584242,1
767,726,52,0.126681877824151,1
768,722,52,0.115424029838245,1
768,723,52,0.119170616078023,1
768,724,52,0.122660678616951,1
768,725,52,0.138177418301759,1
768,726,52,0.123316850274293,1
769,721,52,0.114587907664469,1
769,722,52,0.121987995793115,1
769,723,52,0.117195129201173,1
770,720,52,0.138238552014508,1
770,721,52,0.142107040596931,1
770,722,52,0.139934079226654,1
770,723,52,0.133299970256347,1
770,724,52,0.120966164215304,1
771,720,52,0.164456470770901,1
771,721,52,0.161694618980219,1
771,722,52,0.156752775030104,1
771,723,52,0.156991810084559,1
771,724,52,0.142589868559809,1
772,719,52,0.131494023146159,1
772,720,52,0.1378595724583,1
772,721,52,0.129801440150578,1
772,722,52,0.127633118865607,1
772,723,52,0.134508229627034,1
772,724,52,0.123142034471547,1
778,720,52,0.122915883308779,1
778,721,52,0.125489046148263,1
779,720,52,0.130407913432307,1
779,721,52,0.150673391791185,1
779,722,52,0.135713839202814,1
780,721,52,0.174806345921987,1
780,722,52,0.171779820839005,1
780,723,52,0.137010790153296,1
780,724,52,0.133824723863106,1
780,725,52,0.127838648735556,1
781,722,52,0.154984384346415,1
781,723,52,0.156084355431853,1
781,724,52,0.186210121057706,1
781,725,52,0.178033560582885,1
781,726,52,0.142988067961751,1
782,723,52,0.187567240017905,1
782,724,52,0.240296851459516,1
782,725,52,0.207875868814755,1
782,726,52,0.15381908698384,1
782,727,52,0.120155962924164,1
782,731,52,0.11494245022319,1
782,732,52,0.135448859711991,1
782,733,52,0.140165376879976,1
783,724,52,0.225416875156456,1
783,725,52,0.210890558147147,1
783,726,52,0.153651290193385,1
783,727,52,0.116338326850247,1
783,729,52,0.141619914077868,1
783,730,52,0.188802303536197,1
783,731,52,0.202225422598713,1
783,732,52,0.213908050373708,1
783,733,52,0.205047772151367,1
783,734,52,0.168572544412682,1
783,735,52,0.137841424307395,3
783,736,52,0.12969966447237,3
783,737,52,0.11463263620252,1
784,725,52,0.192248827000567,1
784,726,52,0.155125683187789,1
784,727,52,0.130934692660063,1
784,728,52,0.158814857204554,1
784,729,52,0.229336640214569,1
784,730,52,0.278066745436629,1
784,731,52,0.244766878816706,1
784,732,52,0.235607350422728,1
784,733,52,0.255314993957525,1
784,734,52,0.294059046757833,3
784,735,52,0.304189931080837,3
784,736,52,0.316567276196438,3
784,737,52,0.286010477265513,3
784,738,52,0.21386054249522,1
784,739,52,0.142293291736814,1
785,727,52,0.166715462149199,1
785,728,52,0.208729361866262,1
785,729,52,0.229623713106493,1
785,730,52,0.216078456164007,1
785,731,52,0.167680211256253,1
785,732,52,0.167075728264922,1
785,733,52,0.233851372556076,3
785,734,52,0.355565426663146,3
785,735,52,0.402783240935181,3
785,736,52,0.418858239411255,3
785,737,52,0.392727139712921,3
785,738,52,0.313379443376309,3
785,739,52,0.20839899721397,1
786,730,52,0.121775823770596,1
786,733,52,0.132213683889501,1
786,734,52,0.191841665403401,3
786,735,52,0.210200104032126,3
786,736,52,0.219025970251259,3
786,737,52,0.233465845062228,3
786,738,52,0.237471322152973,1
747,738,53,0.123688905033141,1
748,736,53,0.129155702796742,1
748,737,53,0.143393345260315,1
748,738,53,0.131758084041413,1
749,735,53,0.129476528187364,1
749,736,53,0.142079211861961,1
749,737,53,0.156273256366645,1
749,738,53,0.173629554337943,1
749,739,53,0.121927757122201,1
750,735,53,0.12249778100286,1
750,736,53,0.141718239134263,1
750,737,53,0.182649809511544,1
750,738,53,0.243768930723668,1
750,739,53,0.183429214297417,1
751,731,53,0.119496328868142,1
751,732,53,0.131981349871948,1
751,733,53,0.116557529661922,1
751,736,53,0.128489897662801,1
751,737,53,0.169809680659437,1
751,738,53,0.216432869177199,1
751,739,53,0.174781555618512,1
752,730,53,0.151112562910842,1
752,731,53,0.162193675464802,1
752,732,53,0.178268120428162,1
752,733,53,0.137127663774048,1
752,737,53,0.120918432576357,1
752,738,53,0.136370010860155,1
752,739,53,0.117186920725391,1
753,729,53,0.145402113561212,1
753,730,53,0.148151022575876,1
753,731,53,0.169786350687378,1
753,732,53,0.179954614783886,1
753,733,53,0.141218593806367,1
753,734,53,0.11474939205461,1
754,730,53,0.128454143096839,1
754,731,53,0.176658658554636,1
754,732,53,0.190743048657583,1
754,733,53,0.154391607560145,1
754,734,53,0.130964947429482,1
755,730,53,0.165187731727509,1
755,731,53,0.202346512337586,1
755,732,53,0.18677093542895,1
755,733,53,0.136497919404592,1
756,729,53,0.169567465851092,1
756,730,53,0.221001186260185,1
756,731,53,0.18095547176289,1
756,732,53,0.12999609997297,1
757,728,53,0.129229567301917,1
757,729,53,0.202781643992116,1
757,730,53,0.188491099845309,1
757,731,53,0.125636586728753,1
758,728,53,0.143265636922605,1
758,729,53,0.165277141696146,1
758,730,53,0.131445584895236,1
758,731,53,0.11649520648568,1
758,732,53,0.137031046363261,1
758,733,53,0.127642033953365,1
759,727,53,0.131547949416758,1
759,728,53,0.118105422078647,1
759,730,53,0.114333056278629,1
759,731,53,0.139793110137536,1
759,732,53,0.145701646377638,1
759,733,53,0.119480724520349,1
760,726,53,0.158045980937116,1
760,727,53,0.158420343961751,1
760,731,53,0.128178022690535,1
760,732,53,0.114935760963155,1
761,726,53,0.146824099500764,1
761,727,53,0.125442315542948,1
765,725,53,0.11838761934794,1
765,726,53,0.132839459455029,1
766,725,53,0.115327447758057,1
766,726,53,0.114887522918959,1
767,723,53,0.116240967496885,1
768,723,53,0.125892498032557,1
769,722,53,0.116417349622844,1
769,723,53,0.115603214858373,1
770,720,53,0.124753957710121,1
770,721,53,0.14860181746253,1
770,722,53,0.146750953384431,1
770,723,53,0.127500640897062,1
771,719,53,0.120962018758381,1
771,720,53,0.160215903875899,1
771,721,53,0.188875284776403,1
771,722,53,0.173103799697551,1
771,723,53,0.148905978587396,1
771,724,53,0.125326101426706,1
772,719,53,0.12039112338962,1
772,720,53,0.145652513291607,1
772,721,53,0.155316009123397,1
772,722,53,0.138372407876406,1
772,723,53,0.129346476253268,1
773,720,53,0.114028424079113,1
777,721,53,0.131750888376129,1
777,722,53,0.124715600456716,1
778,720,53,0.136275831260683,1
778,721,53,0.157766598338859,1
778,722,53,0.134240847655494,1
779,720,53,0.138701665503269,1
779,721,53,0.18266030269938,1
779,722,53,0.170163669705444,1
779,723,53,0.117163119678682,1
780,720,53,0.130770393598887,1
780,721,53,0.205930377616266,1
780,722,53,0.210329272701252,1
780,723,53,0.145918482039195,1
780,724,53,0.12035712357673,1
780,725,53,0.114440979481025,1
781,721,53,0.155989469220406,1
781,722,53,0.164743578993425,1
781,723,53,0.157948656914354,1
781,724,53,0.191625983874738,1
781,725,53,0.190110301187231,1
781,726,53,0.149141515912572,1
782,722,53,0.124727200669981,1
782,723,53,0.190234888655382,1
782,724,53,0.261535275624365,1
782,725,53,0.231951151631487,1
782,726,53,0.166336506146723,1
782,727,53,0.114245118418275,1
782,732,53,0.130923598852048,1
782,733,53,0.14150985926268,1
782,734,53,0.115215591082331,1
783,723,53,0.19126866197558,1
783,724,53,0.247547467601605,1
783,725,53,0.220077526639507,1
783,726,53,0.157511841167949,1
783,729,53,0.127872931193235,1
783,730,53,0.173594341507829,1
783,731,53,0.187736544247241,1
783,732,53,0.192669779308121,1
783,733,53,0.200863286693488,1
783,734,53,0.185681269101488,1
783,735,53,0.157741596051791,3
783,736,53,0.135664329257062,1
784,725,53,0.190247054158228,1
784,726,53,0.155567303895627,1
784,727,53,0.12696893893921,1
784,728,53,0.147971248712435,1
784,729,53,0.212156194410247,1
784,730,53,0.253037324469341,1
784,731,53,0.212735074494332,1
784,732,53,0.186777824895711,1
784,733,53,0.215914357309557,1
784,734,53,0.281045044252282,3
784,735,53,0.307546597055652,3
784,736,53,0.303219517301112,3
784,737,53,0.265403293132137,3
784,738,53,0.213519460894633,3
784,739,53,0.152394792778501,1
785,726,53,0.13750760903329,1
785,727,53,0.158584972775183,1
785,728,53,0.198972581476836,1
785,729,53,0.231505255921196,1
785,730,53,0.219304822890535,1
785,731,53,0.164981224377661,1
785,732,53,0.149863873558288,1
785,733,53,0.203367731518352,1
785,734,53,0.322759693797709,3
785,735,53,0.386125617331552,3
785,736,53,0.401333178946468,3
785,737,53,0.39898699165039,3
785,738,53,0.366717883472902,3
785,739,53,0.256340570578807,3
785,740,53,0.148021206179105,1
786,728,53,0.16731648274185,1
786,729,53,0.161120390758307,1
786,730,53,0.134604729269159,1
786,733,53,0.135334706547344,1
786,734,53,0.189243264739525,1
786,735,53,0.213909864011112,3
786,736,53,0.224403687798479,3
786,737,53,0.257846596235982,3
786,738,53,0.282547159989859,3
786,739,53,0.220727327012202,1
747,736,54,0.133288322935617,1
747,737,54,0.149614851721246,1
747,738,54,0.12241854624667,1
748,735,54,0.127643553169112,1
748,736,54,0.147010550847374,1
748,737,54,0.167421485281414,1
748,738,54,0.140153376253259,1
749,735,54,0.132453213572339,1
749,736,54,0.15554913219099,1
749,737,54,0.176470393570622,1
749,738,54,0.170318547273613,1
749,739,54,0.116422284129806,1
750,734,54,0.115287912818026,1
750,735,54,0.133406633334053,1
750,736,54,0.157897969281976,1
750,737,54,0.189782492114917,1
750,738,54,0.211399742736712,1
750,739,54,0.155330106032309,1
751,731,54,0.12621483086206,1
751,732,54,0.128501191677543,1
751,733,54,0.121561143275565,1
751,734,54,0.116528817661983,1
751,735,54,0.11957415040038,1
751,736,54,0.14142477140396,1
751,737,54,0.168833201793588,1
751,738,54,0.182525469357583,1
751,739,54,0.141505808020687,1
752,730,54,0.157961458367977,1
752,731,54,0.159839892089988,1
752,732,54,0.171358067704545,1
752,733,54,0.150185205354159,1
752,737,54,0.114673231060514,1
753,729,54,0.12599114106434,1
753,730,54,0.152968761909356,1
753,731,54,0.174552424908581,1
753,732,54,0.197956756100817,1
753,733,54,0.170439613458753,1
753,734,54,0.119017516816658,1
754,730,54,0.141965094027913,1
754,731,54,0.189731639606411,1
754,732,54,0.209577955741406,1
754,733,54,0.167141113426391,1
754,734,54,0.123829167510283,1
755,729,54,0.11385948493263,1
755,730,54,0.176691398242835,1
755,731,54,0.206747173952511,1
755,732,54,0.183764325026811,1
755,733,54,0.129460652971647,1
756,729,54,0.163940962004155,1
756,730,54,0.207382276796116,1
756,731,54,0.165348756819865,1
756,732,54,0.115913629499222,1
757,728,54,0.114741348454955,1
757,729,54,0.165851051942669,1
757,730,54,0.160867588547195,1
758,728,54,0.11462234322141,1
758,729,54,0.121295021428715,1
759,727,54,0.119247153931839,1
759,731,54,0.117638681315078,1
759,732,54,0.124099352375992,1
760,726,54,0.128317578555702,1
760,727,54,0.125482663086751,1
767,723,54,0.114149019189603,1
768,723,54,0.11461752648311,1
770,721,54,0.148203865374779,1
770,722,54,0.150823699935246,1
770,723,54,0.119524534462832,1
771,720,54,0.150496515036844,1
771,721,54,0.202589068675053,1
771,722,54,0.185217213463427,1
771,723,54,0.135365644375006,1
772,720,54,0.151913601800033,1
772,721,54,0.181477010285161,1
772,722,54,0.154082135068596,1
772,723,54,0.120282293368522,1
773,720,54,0.120147165605069,1
773,721,54,0.123098954694772,1
777,720,54,0.121292560063667,1
777,721,54,0.155929006789034,1
777,722,54,0.130051215707061,1
778,720,54,0.151958295007485,1
778,721,54,0.201998882799359,1
778,722,54,0.169484321175305,1
779,720,54,0.148796159309533,1
779,721,54,0.223036888254215,1
779,722,54,0.217937622932818,1
779,723,54,0.133687334941331,1
780,720,54,0.1344120126297,1
780,721,54,0.224408139453925,1
780,722,54,0.240757491806363,1
780,723,54,0.160026720296317,1
780,724,54,0.118123994196737,1
781,721,54,0.164772726737415,1
781,722,54,0.178477195134854,1
781,723,54,0.164503213153083,1
781,724,54,0.185304562480468,1
781,725,54,0.189076021461784,1
781,726,54,0.151986806800697,1
782,722,54,0.124699242389483,1
782,723,54,0.186888291901219,1
782,724,54,0.25722228100187,1
782,725,54,0.244888769382484,1
782,726,54,0.181907019002869,1
782,732,54,0.115088754232724,1
782,733,54,0.126749771458133,1
782,734,54,0.116494700080431,1
783,723,54,0.19396866166467,1
783,724,54,0.262357065351904,1
783,725,54,0.240333689497174,1
783,726,54,0.170484730633391,1
783,730,54,0.146918879720415,1
783,731,54,0.163939584110803,1
783,732,54,0.16406421868642,1
783,733,54,0.187491644313389,1
783,734,54,0.204106612107429,1
783,735,54,0.190011669932313,1
783,736,54,0.143095979387281,1
784,724,54,0.185010965204636,1
784,725,54,0.191504587937342,1
784,726,54,0.153260474886586,1
784,727,54,0.120314750411931,1
784,728,54,0.129280549355951,1
784,729,54,0.173338347765961,1
784,730,54,0.201352945238797,1
784,731,54,0.177555184275453,1
784,732,54,0.155900035698037,1
784,733,54,0.190454091467057,1
784,734,54,0.262043046989979,1
784,735,54,0.297075620388827,3
784,736,54,0.262191788810828,3
784,737,54,0.21831775662192,3
784,738,54,0.191269663009212,3
784,739,54,0.153326590213763,1
785,726,54,0.128508434450292,1
785,727,54,0.138110407932746,1
785,728,54,0.169796784990883,1
785,729,54,0.206731392951725,1
785,730,54,0.200751477125227,1
785,731,54,0.157965450725639,1
785,732,54,0.138175027597908,1
785,733,54,0.172855696456077,1
785,734,54,0.259140426316906,3
785,735,54,0.325550128042801,3
785,736,54,0.330121648433408,3
785,737,54,0.340185027759016,3
785,738,54,0.350620391182274,3
785,739,54,0.270120799556888,3
785,740,54,0.166614711058355,1
786,728,54,0.148129553348686,1
786,729,54,0.159111469358149,1
786,730,54,0.140680779654927,1
786,731,54,0.117276884206742,1
786,733,54,0.132207277274257,1
786,734,54,0.174242940640166,1
786,735,54,0.213483729882404,3
786,736,54,0.230451626804487,3
786,737,54,0.265924466571554,3
786,738,54,0.289062075296761,3
786,739,54,0.217239725838322,1
787,737,54,0.125324900186348,1
745,741,55,0.150672850055337,1
746,737,55,0.140333915613006,1
746,738,55,0.118323682741021,1
746,743,55,0.130399646072194,1
747,736,55,0.145425679070596,1
747,737,55,0.152701591921409,1
747,738,55,0.122250019290507,1
748,734,55,0.135526610583031,1
748,735,55,0.137082346392685,1
748,736,55,0.16202964727155,1
748,737,55,0.184567495528795,1
748,738,55,0.14222584562375,1
749,734,55,0.121076525229015,1
749,735,55,0.136385626984814,1
749,736,55,0.172753331934556,1
749,737,55,0.197770799382591,1
749,738,55,0.161015906400859,1
750,732,55,0.122057067113723,1
750,733,55,0.115993888842776,1
750,734,55,0.130978337726419,1
750,735,55,0.149403186103976,1
750,736,55,0.184396259893392,1
750,737,55,0.200459669933067,1
750,738,55,0.172764378635106,1
750,739,55,0.123240006221954,1
751,730,55,0.137222703084757,1
751,731,55,0.142743486003289,1
751,732,55,0.132118420818334,1
751,733,55,0.127396980920252,1
751,734,55,0.132353169093471,1
751,735,55,0.13888354742577,1
751,736,55,0.158445770216004,1
751,737,55,0.162323550745904,1
751,738,55,0.142550215851116,1
752,729,55,0.118915811799647,1
752,730,55,0.153600602561007,1
752,731,55,0.153837765093726,1
752,732,55,0.160173412942437,1
752,733,55,0.157434372941698,1
752,734,55,0.122963826931319,1
753,729,55,0.119632952293611,1
753,730,55,0.161822339094796,1
753,731,55,0.181996829384958,1
753,732,55,0.215916265161891,1
753,733,55,0.201716096686753,1
753,734,55,0.125589173065195,1
754,729,55,0.123095727833417,1
754,730,55,0.175266173665062,1
754,731,55,0.207574498807192,1
754,732,55,0.224457343201154,1
754,733,55,0.182798504224927,1
754,734,55,0.115765323422425,1
755,729,55,0.128933355561776,1
755,730,55,0.17703321000913,1
755,731,55,0.190781488349052,1
755,732,55,0.167839234281346,1
755,733,55,0.121974911694701,1
756,729,55,0.137736975280546,1
756,730,55,0.160502505693173,1
756,731,55,0.135488418205754,1
757,729,55,0.119117749725387,1
757,730,55,0.121619391656081,1
764,723,55,0.113872839898968,1
765,723,55,0.118770379278218,1
770,721,55,0.140837364868703,1
770,722,55,0.147647643981376,1
771,720,55,0.145602426279408,1
771,721,55,0.209534075137726,1
771,722,55,0.194281490563103,1
771,723,55,0.124273744211552,1
772,720,55,0.164707023600557,1
772,721,55,0.211465481204169,1
772,722,55,0.175550125687427,1
772,723,55,0.113752492102669,1
772,752,55,0.13750817432287,1
772,753,55,0.179892821566627,1
773,719,55,0.117763975395206,1
773,720,55,0.135224463302295,1
773,721,55,0.147188699503271,1
773,722,55,0.123962599404995,1
773,752,55,0.121439134941124,1
773,753,55,0.184548888080106,1
776,721,55,0.118635899242408,1
777,720,55,0.126964075093445,1
777,721,55,0.168876422892758,1
777,722,55,0.127700199895817,1
778,720,55,0.155698250871559,1
778,721,55,0.23526869485659,1
778,722,55,0.195984978936839,1
779,720,55,0.149612355025599,1
779,721,55,0.249998987189502,1
779,722,55,0.248792117489033,1
779,723,55,0.145467958020465,1
780,720,55,0.127387842072035,1
780,721,55,0.215315951181215,1
780,722,55,0.242538483736949,1
780,723,55,0.167679905057731,1
780,724,55,0.11564150145058,1
781,721,55,0.161240726777739,1
781,722,55,0.190371582742048,1
781,723,55,0.175731736742004,1
781,724,55,0.169802190572496,1
781,725,55,0.173543135693336,1
781,726,55,0.147082436839018,1
782,722,55,0.137630323979706,1
782,723,55,0.180884575028012,1
782,724,55,0.231441425306074,1
782,725,55,0.247194844672084,1
782,726,55,0.196011547547119,1
782,734,55,0.11787057958858,1
782,735,55,0.120389792603732,1
783,723,55,0.178565863160917,1
783,724,55,0.258140876570056,1
783,725,55,0.270302516603262,1
783,726,55,0.198024096222085,1
783,730,55,0.120287110106822,1
783,731,55,0.135497851475627,1
783,732,55,0.135772334897521,1
783,733,55,0.163127416082997,1
783,734,55,0.211677205705769,1
783,735,55,0.232654560299392,1
783,736,55,0.172787579061636,1
784,724,55,0.194512529125368,1
784,725,55,0.203604446530154,1
784,726,55,0.15862499056673,1
784,727,55,0.114091889611381,1
784,729,55,0.131421242112679,1
784,730,55,0.150535037166377,1
784,731,55,0.146662956639745,1
784,732,55,0.139684916067216,1
784,733,55,0.166753477873482,1
784,734,55,0.228594438549207,1
784,735,55,0.26871344048523,1
784,736,55,0.222369116383609,1
784,737,55,0.176491462384359,1
784,738,55,0.169409349644701,1
784,739,55,0.160498101145192,1
784,740,55,0.122469233879048,1
785,725,55,0.117835190105473,1
785,726,55,0.116976797877601,1
785,727,55,0.116316327664076,1
785,728,55,0.135217974248987,1
785,729,55,0.169057539318952,1
785,730,55,0.17205530529453,1
785,731,55,0.149255198002568,1
785,732,55,0.135239655459769,1
785,733,55,0.148751819408068,1
785,734,55,0.193477872540201,1
785,735,55,0.243793921233869,3
785,736,55,0.247792567742183,3
785,737,55,0.263218707994862,3
785,738,55,0.292215331237554,3
785,739,55,0.26084599919597,1
785,740,55,0.183064013674732,1
785,741,55,0.122793085924299,1
786,728,55,0.121145726095152,1
786,729,55,0.147341445458647,1
786,730,55,0.143796632268482,1
786,731,55,0.127406319975195,1
786,732,55,0.119142858004251,1
786,733,55,0.125267122880482,1
786,734,55,0.154026041854606,1
786,735,55,0.20301378957981,1
786,736,55,0.230842618764279,1
786,737,55,0.254744381233554,1
786,738,55,0.25594635175766,1
786,739,55,0.200787867641967,1
786,740,55,0.142866142065374,1
787,735,55,0.130443149816154,1
787,736,55,0.143922691844916,1
787,737,55,0.144264904024664,1
787,738,55,0.130602231725578,1
744,741,56,0.179979511079158,1
745,739,56,0.124542492299578,1
745,740,56,0.146558719596489,1
745,741,56,0.152791472964696,1
745,742,56,0.14620275203695,1
745,743,56,0.159131054286737,1
746,736,56,0.141226861166481,1
746,737,56,0.135254188112733,1
746,738,56,0.122439650391006,1
746,739,56,0.116931456942505,1
746,740,56,0.126044054524441,1
746,741,56,0.1159296578142,1
746,743,56,0.122663069320802,1
746,744,56,0.1302088961694,1
747,735,56,0.169366729165711,1
747,736,56,0.162710432579372,1
747,737,56,0.154220289486678,1
747,738,56,0.127868691521382,1
748,734,56,0.131221800882587,1
748,735,56,0.146774919307268,1
748,736,56,0.169921184029175,1
748,737,56,0.190586039476621,1
748,738,56,0.149348612105733,1
749,734,56,0.122809938619915,1
749,735,56,0.139064075008651,1
749,736,56,0.186762832944964,1
749,737,56,0.214855781909019,1
749,738,56,0.162316213758225,1
749,755,56,0.161102843227581,1
750,731,56,0.122989806698286,1
750,732,56,0.126778907425258,1
750,733,56,0.126705431556669,1
750,734,56,0.135415154320758,1
750,735,56,0.159638990528479,1
750,736,56,0.206975880695257,1
750,737,56,0.204937187377197,1
750,738,56,0.146508785683551,1
751,730,56,0.137798426968685,1
751,731,56,0.148983682350972,1
751,732,56,0.131587119273935,1
751,733,56,0.127014397642969,1
751,734,56,0.136160029334761,1
751,735,56,0.152688401831199,1
751,736,56,0.172247256437683,1
751,737,56,0.147984827439232,1
751,759,56,0.128491711300205,1
752,730,56,0.137775756501136,1
752,731,56,0.144187694889471,1
752,732,56,0.152075698587219,1
752,733,56,0.154886012182556,1
752,734,56,0.127784227836574,1
752,735,56,0.117367648514998,1
752,736,56,0.114072316459659,1
753,730,56,0.164516780103013,1
753,731,56,0.18211968565377,1
753,732,56,0.222936879105946,1
753,733,56,0.217661973601165,1
753,734,56,0.137271000013284,1
754,729,56,0.143715948957743,1
754,730,56,0.205832818056178,1
754,731,56,0.209257483656772,1
754,732,56,0.216102928492093,1
754,733,56,0.187246073098161,1
754,734,56,0.119562161550529,1
755,729,56,0.131697821816767,1
755,730,56,0.162330852402985,1
755,731,56,0.154970228553172,1
755,732,56,0.137237306398918,1
764,723,56,0.128614202486162,1
765,723,56,0.127242786410325,1
770,721,56,0.124574454714605,1
770,722,56,0.132026561261515,1
771,720,56,0.131094598950125,1
771,721,56,0.196224096429358,1
771,722,56,0.184271507549113,1
771,752,56,0.12898742315477,1
771,753,56,0.146581178080444,1
772,720,56,0.163092568335738,1
772,721,56,0.220854894027518,1
772,722,56,0.185642523211497,1
772,752,56,0.16816115492053,1
772,753,56,0.241351540494189,1
772,754,56,0.195984696292049,1
773,718,56,0.139427108687945,1
773,719,56,0.137476930296686,1
773,720,56,0.144694630097581,1
773,721,56,0.16132924170454,1
773,722,56,0.131904034744959,1
773,752,56,0.131149585138688,1
773,753,56,0.213929554931497,1
773,754,56,0.246136316379011,1
773,755,56,0.231142057365775,1
774,719,56,0.129777391789678,1
774,753,56,0.117837616139922,1
774,754,56,0.18872888655194,1
774,755,56,0.24765004410672,1
774,756,56,0.1929360307005,1
776,721,56,0.117262080685855,1
777,720,56,0.118557241552666,1
777,721,56,0.157330830733551,1
777,722,56,0.116205648674975,1
778,720,56,0.143826357078919,1
778,721,56,0.233562415365551,1
778,722,56,0.19476482493123,1
779,720,56,0.140775465659647,1
779,721,56,0.248337012269328,1
779,722,56,0.24518801955412,1
779,723,56,0.144113571293238,1
780,720,56,0.114164164239612,1
780,721,56,0.19066901927628,1
780,722,56,0.223853331284473,1
780,723,56,0.170218726555204,1
780,751,56,0.11693524909344,1
781,721,56,0.147195730292427,1
781,722,56,0.197779632032285,1
781,723,56,0.192585339177046,1
781,724,56,0.160939604084368,1
781,725,56,0.159225540084731,1
781,726,56,0.136648769284501,1
781,750,56,0.116186346391177,1
782,722,56,0.151310308272193,1
782,723,56,0.179698255959165,1
782,724,56,0.208916778915905,1
782,725,56,0.249811004850279,1
782,726,56,0.203115730134146,1
782,735,56,0.139373099979282,1
782,736,56,0.116795186823025,1
783,723,56,0.157767210735904,1
783,724,56,0.238620979837157,1
783,725,56,0.295479336828644,1
783,726,56,0.226051554032875,1
783,727,56,0.116674344398343,1
783,733,56,0.13218378242607,1
783,734,56,0.194385668722028,1
783,735,56,0.248408497847519,1
783,736,56,0.194458826615228,1
784,724,56,0.1872487817774,1
784,725,56,0.213129623067734,1
784,726,56,0.168118145804953,1
784,730,56,0.114077062536761,1
784,731,56,0.119073586476917,1
784,732,56,0.123514678073708,1
784,733,56,0.142872336697026,1
784,734,56,0.188229123455382,1
784,735,56,0.230070032783969,1
784,736,56,0.193144245695956,1
784,737,56,0.14743049034443,1
784,738,56,0.1427806891238,1
784,739,56,0.154285945516071,1
784,740,56,0.128126534231252,1
784,746,56,0.12653582112881,1
785,725,56,0.115479051357406,1
785,729,56,0.135893401082661,1
785,730,56,0.145658095526213,1
785,731,56,0.141402725110323,1
785,732,56,0.134181822001805,1
785,733,56,0.131768753882244,1
785,734,56,0.148028130976465,1
785,735,56,0.180683626359039,1
785,736,56,0.191059811029346,1
785,737,56,0.199604740103876,1
785,738,56,0.216431361738318,1
785,739,56,0.223077494889076,1
785,740,56,0.177958259300026,1
785,741,56,0.125017794844917,1
786,729,56,0.132689045319171,1
786,730,56,0.147421115958888,1
786,731,56,0.145104735911311,1
786,732,56,0.130739773746614,1
786,733,56,0.115465331308215,1
786,734,56,0.128462269134558,1
786,735,56,0.177778897626905,1
786,736,56,0.213829734213087,1
786,737,56,0.219587679664339,1
786,738,56,0.197468251688402,1
786,739,56,0.170861460808144,1
786,740,56,0.139414048143264,1
786,741,56,0.126946174256731,1
787,735,56,0.144193583322601,1
787,736,56,0.164584497084001,1
787,737,56,0.152653554083939,1
787,738,56,0.124092674892823,1
744,739,57,0.141337457717517,1
744,740,57,0.149428683019426,1
744,741,57,0.181268901281502,1
744,742,57,0.214817271556352,1
744,743,57,0.230119048101338,1
745,737,57,0.156874854025743,1
745,738,57,0.14966199451688,1
745,739,57,0.146470004462961,1
745,740,57,0.150810710051763,1
745,741,57,0.149454556794597,1
745,742,57,0.152382839259248,1
745,743,57,0.164084769318041,1
745,744,57,0.143261220597758,1
746,736,57,0.156598368536585,1
746,737,57,0.136765254268667,1
746,738,57,0.126972236461762,1
746,739,57,0.129422849230957,1
746,740,57,0.13295463720704,1
746,741,57,0.122403742725783,1
746,742,57,0.114421500544233,1
746,743,57,0.128546862364895,1
746,744,57,0.127447586114566,1
747,735,57,0.216751409855767,1
747,736,57,0.181107840858547,1
747,737,57,0.147662659485856,1
747,738,57,0.130053029344465,1
747,739,57,0.119666528139314,1
747,740,57,0.11453322767443,1
747,743,57,0.118208610980807,1
747,744,57,0.117956597819735,1
747,750,57,0.123405412308559,1
748,734,57,0.125603705718158,1
748,735,57,0.160428276105143,1
748,736,57,0.165088311422552,1
748,737,57,0.179833207069625,1
748,738,57,0.161476005011857,1
748,739,57,0.127208103539193,1
749,734,57,0.121740504948686,1
749,735,57,0.140136511780776,1
749,736,57,0.18602608396868,1
749,737,57,0.213143449108722,1
749,738,57,0.172573781831574,1
749,739,57,0.117242413319202,1
749,754,57,0.121444882051858,1
749,755,57,0.126329690638682,1
749,756,57,0.114283911415731,1
749,757,57,0.125764012421673,1
749,758,57,0.141422522022504,1
750,731,57,0.119312209341052,1
750,732,57,0.12652955583596,1
750,733,57,0.132432980916106,1
750,734,57,0.13207184331228,1
750,735,57,0.159791041648746,1
750,736,57,0.21185169175626,1
750,737,57,0.195324626491976,1
750,738,57,0.133446333150211,1
750,754,57,0.119447184005244,1
750,755,57,0.116751965723855,1
750,759,57,0.140940577324596,1
751,730,57,0.136145296475071,1
751,731,57,0.151223418552936,1
751,732,57,0.137284578740081,1
751,733,57,0.129996217741632,1
751,734,57,0.129960957804053,1
751,735,57,0.152838651090929,1
751,736,57,0.174820525268962,1
751,737,57,0.13207366872655,1
751,745,57,0.115390748414198,1
751,757,57,0.131207645089344,1
751,758,57,0.165418581859914,1
751,759,57,0.116414381852546,1
752,730,57,0.131178721105812,1
752,731,57,0.148401292760741,1
752,732,57,0.160411965145375,1
752,733,57,0.158007741452374,1
752,734,57,0.136178095047602,1
752,735,57,0.131407380741093,1
752,736,57,0.121629566868528,1
753,729,57,0.122585318449761,1
753,730,57,0.170402280792713,1
753,731,57,0.186985345056057,1
753,732,57,0.222742160399223,1
753,733,57,0.220523045490077,1
753,734,57,0.163640074848109,1
753,735,57,0.131399996645948,1
754,729,57,0.165374465718908,1
754,730,57,0.215157104809116,1
754,731,57,0.195811399705051,1
754,732,57,0.192075153553848,1
754,733,57,0.179524535404981,1
754,734,57,0.137245173345579,1
755,728,57,0.114539928711331,1
755,729,57,0.134804735788832,1
755,730,57,0.145116642323099,1
755,731,57,0.124027749029139,1
758,747,57,0.123279152525398,1
759,747,57,0.131142460134601,1
760,747,57,0.134507122601606,1
761,747,57,0.122889232260436,1
764,723,57,0.129614977027103,1
765,723,57,0.125548283785545,1
766,750,57,0.118957643228599,1
767,751,57,0.114574705797393,1
770,721,57,0.114215876459354,1
770,722,57,0.12178254836123,1
771,720,57,0.126864501689227,1
771,721,57,0.184107656008854,1
771,722,57,0.177831752202674,1
771,752,57,0.140321349696708,1
771,753,57,0.165163954234532,1
772,719,57,0.124695132263159,1
772,720,57,0.167729886078133,1
772,721,57,0.226273689284248,1
772,722,57,0.203700875511081,1
772,752,57,0.17784485985482,1
772,753,57,0.259734686988325,1
772,754,57,0.207513777284762,1
772,755,57,0.125902685021871,1
773,718,57,0.150853848712869,1
773,719,57,0.161718643787387,1
773,720,57,0.158543506429086,1
773,721,57,0.175554188706287,1
773,722,57,0.149426680952162,1
773,752,57,0.128226072304871,1
773,753,57,0.204172138591293,1
773,754,57,0.238531546314788,1
773,755,57,0.232121280241462,1
773,756,57,0.164732991590658,1
774,718,57,0.144929884777967,1
774,719,57,0.144112758689467,1
774,720,57,0.125164876127623,1
774,721,57,0.123019990806507,1
774,754,57,0.177388824262681,1
774,755,57,0.237966186073168,1
774,756,57,0.196779246127931,1
774,757,57,0.11395748023677,1
775,755,57,0.126838357046132,1
777,721,57,0.139154238696729,1
778,720,57,0.128119432780898,1
778,721,57,0.207426581366981,1
778,722,57,0.181748525936758,1
779,720,57,0.12826268658207,1
779,721,57,0.219011578920691,1
779,722,57,0.220048696870905,1
779,723,57,0.138435343449693,1
779,754,57,0.134872158348164,1
779,755,57,0.141069180704142,1
780,721,57,0.162339355300424,1
780,722,57,0.201844040561789,1
780,723,57,0.177193163406657,1
780,724,57,0.121294550354064,1
780,753,57,0.114807887749317,1
780,754,57,0.126625348866109,1
781,721,57,0.130321824539956,1
781,722,57,0.19745541490418,1
781,723,57,0.212137751837686,1
781,724,57,0.168349926309792,1
781,725,57,0.154116900377792,1
781,726,57,0.120741037639901,1
781,754,57,0.14464760507061,1
781,755,57,0.179089921932567,1
782,722,57,0.154709677164063,1
782,723,57,0.178360521720828,1
782,724,57,0.192288903676446,1
782,725,57,0.240985751028191,1
782,726,57,0.189236269280968,1
782,735,57,0.144287515607881,1
782,736,57,0.130788777287117,1
783,723,57,0.134684741298521,1
783,724,57,0.201994784449901,1
783,725,57,0.284033188528126,1
783,726,57,0.226780565608027,1
783,727,57,0.116063890535818,1
783,734,57,0.163904076859033,1
783,735,57,0.228295306146233,1
783,736,57,0.200338627301659,1
783,737,57,0.122859271912673,1
784,724,57,0.161409995676477,1
784,725,57,0.202845027086321,1
784,726,57,0.170298997675623,1
784,727,57,0.113862794232049,1
784,733,57,0.12059456875424,1
784,734,57,0.152395275630018,1
784,735,57,0.194756416248721,1
784,736,57,0.189826902677579,1
784,737,57,0.148657204064545,1
784,738,57,0.130467916565896,1
784,739,57,0.14059310088563,1
784,740,57,0.126908900475022,1
784,745,57,0.118687505470354,1
784,746,57,0.140492408679117,1
784,747,57,0.116149107940067,1
785,725,57,0.113765729300344,1
785,730,57,0.13050070336156,1
785,731,57,0.142229484675423,1
785,732,57,0.135106011581464,1
785,733,57,0.119578519617762,1
785,734,57,0.12522579785678,1
785,735,57,0.153858268617883,1
785,736,57,0.182523632166447,1
785,737,57,0.176731145166458,1
785,738,57,0.166167437454712,1
785,739,57,0.182544218128667,1
785,740,57,0.163519833043607,1
785,741,57,0.127039011293449,1
785,742,57,0.128256350628023,1
785,743,57,0.146367557503376,1
785,744,57,0.145797698498845,1
785,745,57,0.14462796125769,1
785,746,57,0.143380496699227,1
786,729,57,0.119159816691663,1
786,730,57,0.15051617062663,1
786,731,57,0.167545872542839,1
786,732,57,0.147830998012159,1
786,733,57,0.115149558193218,1
786,734,57,0.118142271893171,1
786,735,57,0.159328469895833,1
786,736,57,0.199842821232164,1
786,737,57,0.186927391097198,1
786,738,57,0.151295222106516,1
786,739,57,0.144946266398933,1
786,740,57,0.13538467579088,1
786,741,57,0.134188558369305,1
786,742,57,0.154334795957313,1
787,731,57,0.115630808056017,1
787,735,57,0.146333710789748,1
787,736,57,0.173381015352417,1
787,737,57,0.156564686699085,1
787,738,57,0.12141692377136,1
743,742,58,0.263204057573236,1
744,738,58,0.184203001518085,1
744,739,58,0.176876342150563,1
744,740,58,0.16214687419829,1
744,741,58,0.18183288362977,1
744,742,58,0.21846221166345,1
744,743,58,0.225832103907008,1
744,744,58,0.179905976326238,1
745,737,58,0.160965395421475,1
745,738,58,0.168892698521928,1
745,739,58,0.173683963460058,1
745,740,58,0.153288280067823,1
745,741,58,0.143578701358363,1
745,742,58,0.151445282936385,1
745,743,58,0.159269020274959,1
745,744,58,0.137916607821592,1
746,735,58,0.195120180093723,1
746,736,58,0.163118171242984,1
746,737,58,0.132404987305009,1
746,738,58,0.127608163686005,1
746,739,58,0.136712870767547,1
746,740,58,0.133947933437906,1
746,741,58,0.127796252017024,1
746,742,58,0.122791708030947,1
746,743,58,0.131661914151544,1
746,744,58,0.127066121639577,1
747,734,58,0.150197523956266,1
747,735,58,0.23807295514267,1
747,736,58,0.187137796589778,1
747,737,58,0.135163812441063,1
747,738,58,0.133916924949046,1
747,739,58,0.143229529050656,1
747,740,58,0.134488550483516,1
747,741,58,0.12454040779425,1
747,743,58,0.119160923717092,1
747,744,58,0.128219017961982,1
747,745,58,0.124239873944192,1
748,734,58,0.121541216817855,1
748,735,58,0.168638318210738,1
748,736,58,0.156982871443068,1
748,737,58,0.161712201841544,1
748,738,58,0.184321747660573,1
748,739,58,0.172436722662054,1
748,740,58,0.127336718695606,1
748,745,58,0.117897112868261,1
749,734,58,0.119249791949881,1
749,735,58,0.138992083025211,1
749,736,58,0.166535582293962,1
749,737,58,0.186193586337478,1
749,738,58,0.179211094109504,1
749,739,58,0.134214385037011,1
750,732,58,0.11745181777815,1
750,733,58,0.126543381876948,1
750,734,58,0.125599901790357,1
750,735,58,0.148078877493174,1
750,736,58,0.182888868119731,1
750,737,58,0.161934289985452,1
750,738,58,0.115882291258108,1
750,745,58,0.128855698905665,1
750,746,58,0.115522402002105,1
750,758,58,0.139672927217365,1
751,730,58,0.120992285304666,1
751,731,58,0.143777541968276,1
751,732,58,0.14436328796539,1
751,733,58,0.133870005913871,1
751,734,58,0.122464558463143,1
751,735,58,0.138383595899352,1
751,736,58,0.150507385084401,1
751,745,58,0.13551364425328,1
751,746,58,0.128452694542289,1
751,758,58,0.116144644507755,1
752,730,58,0.135283559617182,1
752,731,58,0.164561602855994,1
752,732,58,0.176212727513746,1
752,733,58,0.165687659700195,1
752,734,58,0.149390985270532,1
752,735,58,0.143904284602953,1
752,736,58,0.116668609064475,1
753,729,58,0.130934539560802,1
753,730,58,0.171849492779792,1
753,731,58,0.183490312679568,1
753,732,58,0.198861125214563,1
753,733,58,0.202391476412963,1
753,734,58,0.192108058118175,1
753,735,58,0.165097968452884,1
754,728,58,0.122605068254477,1
754,729,58,0.165342785948672,1
754,730,58,0.186723498211659,1
754,731,58,0.159534117534444,1
754,732,58,0.14713653976261,1
754,733,58,0.149124992969211,1
754,734,58,0.144372250160613,1
754,735,58,0.119527254918938,1
755,728,58,0.119807108591846,1
755,729,58,0.126647901564995,1
755,730,58,0.119681908726648,1
758,746,58,0.124337610157274,1
758,747,58,0.118312471164343,1
759,746,58,0.134593706122341,1
759,747,58,0.140173302710969,1
760,747,58,0.152793734123018,1
761,747,58,0.136039363563073,1
766,750,58,0.130314687759003,1
767,751,58,0.12356053719092,1
770,722,58,0.113847095669326,1
771,720,58,0.125138389955407,1
771,721,58,0.167633021353154,1
771,722,58,0.165514527989324,1
771,752,58,0.136319017029254,1
771,753,58,0.157609224075043,1
772,719,58,0.13874821945559,1
772,720,58,0.173174201804046,1
772,721,58,0.219565115188587,1
772,722,58,0.208806029265607,1
772,723,58,0.114595067999155,1
772,752,58,0.16003521141689,1
772,753,58,0.22105811563168,1
772,754,58,0.186730175694828,1
772,755,58,0.124246810518419,1
773,718,58,0.145804163998421,1
773,719,58,0.178140400313585,1
773,720,58,0.172149155141747,1
773,721,58,0.182298741128369,1
773,722,58,0.160329232659907,1
773,753,58,0.163100753257787,1
773,754,58,0.195778059396672,1
773,755,58,0.200495400945296,1
773,756,58,0.156479433964237,1
774,718,58,0.134640377843324,1
774,719,58,0.150575184503453,1
774,720,58,0.138592128870196,1
774,721,58,0.133571132601955,1
774,754,58,0.143444362644949,1
774,755,58,0.190014048859297,1
774,756,58,0.167391171627664,1
775,759,58,0.119399652573024,1
776,759,58,0.125699121888587,1
777,721,58,0.118226028966003,1
778,721,58,0.165019711176595,1
778,722,58,0.163530667760565,1
779,721,58,0.170803318419424,1
779,722,58,0.183728876659372,1
779,723,58,0.13230119778267,1
779,754,58,0.12443243748439,1
779,755,58,0.127668920539034,1
780,721,58,0.133769796558875,1
780,722,58,0.17674505364551,1
780,723,58,0.178755411823352,1
780,724,58,0.130284326997788,1
780,751,58,0.128572159073619,1
780,754,58,0.114405919750172,1
780,755,58,0.125477858125317,1
781,721,58,0.11457308058985,1
781,722,58,0.1825442416824,1
781,723,58,0.215847134956952,1
781,724,58,0.17937432147585,1
781,725,58,0.14955997152448,1
781,750,58,0.114601933912184,1
781,756,58,0.174607870394927,1
782,722,58,0.143222203839843,1
782,723,58,0.16641936817772,1
782,724,58,0.177464608397056,1
782,725,58,0.214697712810093,1
782,726,58,0.164753942635732,1
782,735,58,0.126921419283855,1
782,736,58,0.122738829901445,1
783,724,58,0.161855844279302,1
783,725,58,0.238403885084542,1
783,726,58,0.206249577799345,1
783,727,58,0.121148764526647,1
783,734,58,0.1233339502841,1
783,735,58,0.175440271078965,1
783,736,58,0.175605700719303,1
783,737,58,0.1315024553824,1
784,724,58,0.125995215860066,1
784,725,58,0.169669736157683,1
784,726,58,0.160541699104082,1
784,727,58,0.120007880607826,1
784,734,58,0.116492486029575,1
784,735,58,0.154232702303715,1
784,736,58,0.17822871503366,1
784,737,58,0.154373200318183,1
784,738,58,0.123493114631588,1
784,739,58,0.121667182179359,1
784,740,58,0.119908165881213,1
784,741,58,0.114159418162509,1
784,742,58,0.12617151554796,1
784,743,58,0.145200846916849,1
784,744,58,0.135624876755095,1
784,745,58,0.128542080957194,1
784,746,58,0.141212799588168,1
784,747,58,0.12717855538175,1
784,751,58,0.152927060025934,1
785,730,58,0.130972755491812,1
785,731,58,0.156367930594499,1
785,732,58,0.137914994390914,1
785,735,58,0.136342017249058,1
785,736,58,0.17895247412646,1
785,737,58,0.164710544883569,1
785,738,58,0.134441207481155,1
785,739,58,0.147078632911216,1
785,740,58,0.1498923853515,1
785,741,58,0.136429542919093,1
785,742,58,0.152948246608333,1
785,743,58,0.19085757868195,1
785,744,58,0.203394441451027,1
785,745,58,0.205154187914881,1
785,746,58,0.193995854448862,1
785,747,58,0.135168935377885,1
785,750,58,0.16892854730282,1
786,730,58,0.15040366622326,1
786,731,58,0.185404559851872,1
786,732,58,0.1621995050136,1
786,733,58,0.123777196199483,1
786,734,58,0.114988120910542,1
786,735,58,0.140213367609981,1
786,736,58,0.177408220761409,1
786,737,58,0.157245142254652,1
786,738,58,0.125359700826142,1
786,739,58,0.135764868364313,1
786,740,58,0.148013833860827,1
786,741,58,0.15314805292128,1
786,742,58,0.164924459882294,1
786,743,58,0.174357576656329,1
786,744,58,0.182351678142202,1
786,745,58,0.18902639374737,1
786,746,58,0.164408244503572,1
787,731,58,0.119438386686149,1
787,732,58,0.116617203043255,1
787,735,58,0.132548029122589,1
787,736,58,0.159766427998265,1
787,737,58,0.149178671925618,1
787,740,58,0.125467152953888,1
743,740,59,0.194421776593978,1
743,742,59,0.269850402707586,1
743,743,59,0.252550963446586,1
743,744,59,0.186499466884818,1
744,738,59,0.205247978877766,1
744,739,59,0.222363133735549,1
744,740,59,0.191384051711183,1
744,741,59,0.182302827700961,1
744,742,59,0.202092744423442,1
744,743,59,0.204732670317746,1
744,744,59,0.170493951919672,1
745,737,59,0.164208626620485,1
745,738,59,0.179327484878739,1
745,739,59,0.191266860115042,1
745,740,59,0.157790693807224,1
745,741,59,0.142247067536748,1
745,742,59,0.148531427132901,1
745,743,59,0.153387935910105,1
745,744,59,0.135987816219458,1
746,735,59,0.197139924433973,1
746,736,59,0.172686309788677,1
746,737,59,0.144449635948799,1
746,738,59,0.138399259131476,1
746,739,59,0.142878178022691,1
746,740,59,0.135439226235391,1
746,741,59,0.13271911165873,1
746,742,59,0.129516039573662,1
746,743,59,0.133679055804351,1
746,744,59,0.129538038759834,1
747,734,59,0.149352875331319,1
747,735,59,0.226212543794633,1
747,736,59,0.193799027683079,1
747,737,59,0.149977920731138,1
747,738,59,0.163686487478035,1
747,739,59,0.185383679467995,1
747,740,59,0.160233639836484,1
747,741,59,0.131580347575836,1
747,744,59,0.129100975699237,1
748,734,59,0.123480725368284,1
748,735,59,0.176748586705388,1
748,736,59,0.16633390345928,1
748,737,59,0.164309295273265,1
748,738,59,0.224107617380733,1
748,739,59,0.238500361172934,1
748,740,59,0.159816102820145,1
749,734,59,0.123746340809885,1
749,735,59,0.150803043311828,1
749,736,59,0.154912804553295,1
749,737,59,0.161529177563016,1
749,738,59,0.186399822819403,1
749,739,59,0.16052634207048,1
750,733,59,0.114781684221892,1
750,734,59,0.124578670832725,1
750,735,59,0.140632094089813,1
750,736,59,0.146502673489963,1
750,737,59,0.12886729911893,1
751,731,59,0.139629211489812,1
751,732,59,0.159799662314848,1
751,733,59,0.146511988991174,1
751,734,59,0.129562770178977,1
751,735,59,0.127913938241548,1
751,736,59,0.119439752802635,1
752,730,59,0.143149446360096,1
752,731,59,0.182104069529111,1
752,732,59,0.198199359545748,1
752,733,59,0.186057669523986,1
752,734,59,0.17545168286237,1
752,735,59,0.158299112900483,1
753,729,59,0.133646704752738,1
753,730,59,0.163581685145198,1
753,731,59,0.166191238501421,1
753,732,59,0.167699890399772,1
753,733,59,0.18240554552847,1
753,734,59,0.209333515105338,1
753,735,59,0.185404006339157,1
754,728,59,0.121894758342944,1
754,729,59,0.142401886220586,1
754,730,59,0.136439529701681,1
754,733,59,0.117218965578481,1
754,734,59,0.136081383421884,1
754,735,59,0.115877757164598,1
758,746,59,0.145312102972396,1
759,746,59,0.14825271581602,1
760,746,59,0.116259881144097,1
760,747,59,0.147924942074306,1
761,747,59,0.126185435803878,1
766,750,59,0.116693658459007,1
768,752,59,0.116724136988885,1
769,752,59,0.119267280596275,1
771,720,59,0.121276461087491,1
771,721,59,0.147394441356812,1
771,722,59,0.148277247028438,1
771,752,59,0.116217213557641,1
771,753,59,0.131277022608474,1
772,719,59,0.141524309477579,1
772,720,59,0.170750157645132,1
772,721,59,0.196041131035161,1
772,722,59,0.187977145624908,1
772,723,59,0.114178331809721,1
772,752,59,0.124420672394997,1
772,753,59,0.155371136634354,1
772,754,59,0.149296629018067,1
772,755,59,0.128127476380553,1
773,719,59,0.171539914296447,1
773,720,59,0.178465771574583,1
773,721,59,0.176653076320029,1
773,722,59,0.154131150385966,1
773,754,59,0.139380860934147,1
773,755,59,0.153665139788105,1
773,756,59,0.138039016569486,1
774,719,59,0.14312777692618,1
774,720,59,0.150442341452054,1
774,721,59,0.137767524471621,1
774,755,59,0.128824443102614,1
774,756,59,0.123634119051305,1
777,722,59,0.115185395197243,1
777,761,59,0.194501117341963,1
778,721,59,0.12632503877651,1
778,722,59,0.146451550113534,1
779,721,59,0.124753451304872,1
779,722,59,0.14970134102705,1
779,723,59,0.132077955505869,1
780,722,59,0.151875833389941,1
780,723,59,0.175845218625274,1
780,724,59,0.142220593141398,1
780,751,59,0.116122044701404,1
780,752,59,0.113805099364247,1
781,722,59,0.158103393160128,1
781,723,59,0.201587045786289,1
781,724,59,0.186789307340313,1
781,725,59,0.14924492857519,1
781,751,59,0.176533293813311,1
781,756,59,0.153704109438555,1
781,757,59,0.114707195542805,1
782,723,59,0.151510173469471,1
782,724,59,0.166847363051297,1
782,725,59,0.183843312468809,1
782,726,59,0.150698382301386,1
782,757,59,0.142709497967266,1
783,724,59,0.133423568467733,1
783,725,59,0.18227849669527,1
783,726,59,0.177396361457087,1
783,727,59,0.134528203192209,1
783,735,59,0.118340299899313,1
783,736,59,0.140469679327238,1
783,737,59,0.149313469936817,1
783,738,59,0.140795804307676,1
783,739,59,0.127231433511252,1
783,740,59,0.123618314496785,1
783,741,59,0.11521512000768,1
783,751,59,0.125821836835004,1
783,756,59,0.184054648333823,1
784,725,59,0.133726893435094,1
784,726,59,0.140287338106953,1
784,727,59,0.126038884480154,1
784,735,59,0.118482870642242,1
784,736,59,0.159240920672065,1
784,737,59,0.169082082308236,1
784,738,59,0.140117162389513,1
784,739,59,0.117937460412064,1
784,740,59,0.117433975825768,1
784,741,59,0.126382121247266,1
784,742,59,0.149122837802685,1
784,743,59,0.169322200834386,1
784,744,59,0.149246836427524,1
784,745,59,0.130079315309954,1
784,746,59,0.132021803407547,1
784,747,59,0.123055745372469,1
784,751,59,0.154952539700052,1
784,752,59,0.172608229165381,1
784,753,59,0.139827274826553,1
785,730,59,0.137320945703088,1
785,731,59,0.171895693426125,1
785,732,59,0.148972223460102,1
785,733,59,0.119617983896596,1
785,735,59,0.123643234345789,1
785,736,59,0.166351686527331,1
785,737,59,0.157336142100234,1
785,738,59,0.123445736298629,1
785,739,59,0.124996561155052,1
785,740,59,0.145688574056091,1
785,741,59,0.158322584194937,1
785,742,59,0.177750762693413,1
785,743,59,0.213571443982299,1
785,744,59,0.229642603199972,1
785,745,59,0.241726492362137,1
785,746,59,0.234777693748528,1
785,747,59,0.170866112670316,1
785,750,59,0.166295557982742,1
785,751,59,0.215609430688384,1
785,752,59,0.167924333916932,1
786,730,59,0.13687245908222,1
786,731,59,0.179876651929253,1
786,732,59,0.168121490434971,1
786,733,59,0.144606963105151,1
786,734,59,0.12399239487663,1
786,735,59,0.126949354010621,1
786,736,59,0.153715097254775,1
786,737,59,0.138597051600292,1
786,738,59,0.120152724285943,1
786,739,59,0.142724737232205,1
786,740,59,0.177816065416818,1
786,741,59,0.185176830589025,1
786,742,59,0.174998485494999,1
786,743,59,0.178547126166699,1
786,744,59,0.199656110794497,1
786,745,59,0.237186533973103,1
786,746,59,0.232241875351952,1
786,747,59,0.159093486083371,1
786,750,59,0.152906191418923,1
787,733,59,0.115380031465902,1
787,736,59,0.138501623652997,1
787,740,59,0.157002267941797,1
787,741,59,0.166878289102093,1
787,742,59,0.163117464631009,1
787,743,59,0.155444742048472,1
787,744,59,0.14674963437541,1
787,745,59,0.145134790474004,1
787,746,59,0.138167973255019,1
742,742,60,0.271299899406719,1
743,739,60,0.225253153161726,1
743,740,60,0.224069460334054,1
743,741,60,0.225019005506768,1
743,742,60,0.245888248468136,1
743,743,60,0.226859894579146,1
743,744,60,0.177717669699225,1
744,738,60,0.21336796328708,1
744,739,60,0.247907721940462,1
744,740,60,0.215002521662603,1
744,741,60,0.179926538734726,1
744,742,60,0.181558741736997,1
744,743,60,0.182400940773763,1
745,736,60,0.160408349647434,1
745,737,60,0.152512219911967,1
745,738,60,0.166505822152926,1
745,739,60,0.183474508125048,1
745,740,60,0.157894483329563,1
745,741,60,0.14494193251215,1
745,742,60,0.151197980521817,1
745,743,60,0.152666602851754,1
746,735,60,0.17517891886295,1
746,736,60,0.162856925018765,1
746,737,60,0.147825698422343,1
746,738,60,0.140705805495726,1
746,739,60,0.145546580379609,1
746,740,60,0.139640493727688,1
746,741,60,0.137057968279529,1
746,742,60,0.132483268135031,1
746,743,60,0.130299295394802,1
747,734,60,0.135598661450803,1
747,735,60,0.179829921323938,1
747,736,60,0.182633875411495,1
747,737,60,0.162989355879845,1
747,738,60,0.180762072065188,1
747,739,60,0.210776369651901,1
747,740,60,0.17346631519473,1
747,741,60,0.128569756592902,1
748,734,60,0.119123873695842,1
748,735,60,0.175524828978704,1
748,736,60,0.180134353316728,1
748,737,60,0.16664988855787,1
748,738,60,0.22315032303002,1
748,739,60,0.257093606961127,1
748,740,60,0.16876875878142,1
749,734,60,0.122586920103572,1
749,735,60,0.165288906785538,1
749,736,60,0.155483040417545,1
749,737,60,0.137028961857934,1
749,738,60,0.161566522005923,1
749,739,60,0.157067288020411,1
750,734,60,0.118626195104611,1
750,735,60,0.133490661274809,1
750,736,60,0.116667030964396,1
751,731,60,0.135817628725152,1
751,732,60,0.165923279463435,1
751,733,60,0.148407581607324,1
751,734,60,0.137690680419283,1
751,735,60,0.120068390146663,1
752,730,60,0.141253571099156,1
752,731,60,0.180101248545675,1
752,732,60,0.198310792254289,1
752,733,60,0.190115329909123,1
752,734,60,0.193914876716466,1
752,735,60,0.161974920174045,1
753,729,60,0.125198557965123,1
753,730,60,0.14514509523198,1
753,731,60,0.136830922074926,1
753,732,60,0.133296295874074,1
753,733,60,0.15551765262748,1
753,734,60,0.198244182298729,1
753,735,60,0.175428647311968,1
754,734,60,0.115325940319176,1
771,721,60,0.117905580435102,1
771,722,60,0.11611166928223,1
772,719,60,0.129874751143039,1
772,720,60,0.15193794458259,1
772,721,60,0.154796543329588,1
772,722,60,0.140691673256216,1
773,719,60,0.149003809015408,1
773,720,60,0.171224211842647,1
773,721,60,0.15802576005775,1
773,722,60,0.129315079127822,1
774,719,60,0.126461673978844,1
774,720,60,0.149487708673116,1
774,721,60,0.13152710436348,1
778,722,60,0.123891702670117,1
779,722,60,0.118335765805803,1
779,723,60,0.129867143287436,1
780,722,60,0.122855609307267,1
780,723,60,0.158811830549926,1
780,724,60,0.148517848406105,1
781,722,60,0.127420852628158,1
781,723,60,0.169926471842125,1
781,724,60,0.173387469075127,1
781,725,60,0.144791059078508,1
781,726,60,0.121078491965681,1
781,751,60,0.120969709052048,1
781,752,60,0.136272086217213,1
781,753,60,0.142177289604164,1
781,754,60,0.141361317648557,1
781,755,60,0.14649525406422,1
781,756,60,0.125916511062858,1
782,723,60,0.132079698482075,1
782,724,60,0.146566056584168,1
782,725,60,0.154779243113053,1
782,726,60,0.160359864289046,1
782,727,60,0.147819550898156,1
782,756,60,0.198214363273362,1
782,757,60,0.121555525710359,1
783,725,60,0.1337652153579,1
783,726,60,0.150482524119729,1
783,727,60,0.148523889938496,1
783,728,60,0.11395448891274,1
783,737,60,0.148449660350466,1
783,738,60,0.155757794707363,1
783,739,60,0.138949486099953,1
783,740,60,0.132852225578053,1
783,741,60,0.120854908159757,1
783,752,60,0.162350248901713,1
783,753,60,0.16661831477943,1
783,754,60,0.158396484030711,1
783,755,60,0.17739386476144,1
783,756,60,0.158641654832486,1
783,757,60,0.115083313320512,1
784,727,60,0.119208007628394,1
784,728,60,0.117031866504228,1
784,736,60,0.130807867587322,1
784,737,60,0.161265976378998,1
784,738,60,0.143548905886728,1
784,739,60,0.114619316566782,1
784,740,60,0.114226852498707,1
784,741,60,0.134006064049759,1
784,742,60,0.161347472293509,1
784,743,60,0.171009284033424,1
784,744,60,0.144456360539433,1
784,745,60,0.123358917240569,1
784,746,60,0.119311490952211,1
784,751,60,0.141826021014263,1
784,752,60,0.165236982582203,1
784,753,60,0.133264062591123,1
785,730,60,0.133692304778892,1
785,731,60,0.17262066553615,1
785,732,60,0.166816919852018,1
785,733,60,0.143268322048112,1
785,734,60,0.114528458043595,1
785,736,60,0.136652137468251,1
785,737,60,0.135969620961088,1
785,740,60,0.136574787010663,1
785,741,60,0.174407251478209,1
785,742,60,0.194825593561126,1
785,743,60,0.214414314300441,1
785,744,60,0.224999738553569,1
785,745,60,0.240509023482035,1
785,746,60,0.246367849569659,1
785,747,60,0.195764386454946,1
785,748,60,0.119269812622521,1
785,750,60,0.144162009544161,1
785,751,60,0.182163648695514,1
785,752,60,0.152843868242681,1
786,731,60,0.155769724672883,1
786,732,60,0.169044655427265,1
786,733,60,0.165474392429114,1
786,734,60,0.137078189158895,1
786,735,60,0.120826525912074,1
786,736,60,0.12810935178338,1
786,737,60,0.122848225212123,1
786,738,60,0.12232643937566,1
786,739,60,0.152006050200164,1
786,740,60,0.197166763912177,1
786,741,60,0.20342609766753,1
786,742,60,0.180990590378074,1
786,743,60,0.186808703839042,1
786,744,60,0.213768541616007,1
786,745,60,0.255171292635436,1
786,746,60,0.26895220467176,1
786,747,60,0.202156504377367,1
786,748,60,0.115081264145783,1
786,750,60,0.147064312241845,1
786,751,60,0.175072856405423,1
786,752,60,0.141029822417105,1
787,733,60,0.116556693504418,1
787,740,60,0.188870044070918,1
787,741,60,0.165438932284809,1
787,742,60,0.153817014255378,1
787,743,60,0.170839202530915,1
787,744,60,0.171698890214074,1
787,745,60,0.164541982596807,1
787,746,60,0.157168839938161,1
787,747,60,0.128605040084213,1
742,741,61,0.245321404341367,1
742,742,61,0.264445268615716,1
742,743,61,0.22823390156556,1
742,744,61,0.157358105955806,1
743,739,61,0.266149663808154,1
743,740,61,0.254877342053616,1
743,741,61,0.217576826858114,1
743,742,61,0.206254830281696,1
743,743,61,0.193243983976302,1
744,737,61,0.20662544826286,1
744,738,61,0.219824324014943,1
744,739,61,0.243894118811999,1
744,740,61,0.221886029329673,1
744,741,61,0.180896646315928,1
744,742,61,0.169420820312437,1
745,736,61,0.153401184884647,1
745,737,61,0.145646036015164,1
745,738,61,0.154914005793653,1
745,739,61,0.171260249053399,1
745,740,61,0.170005918581907,1
745,741,61,0.161848766382681,1
745,742,61,0.161745553926789,1
745,743,61,0.159033376957986,1
746,735,61,0.151086783350601,1
746,736,61,0.142056317633954,1
746,737,61,0.144531909136483,1
746,738,61,0.147221639398196,1
746,739,61,0.162657801764061,1
746,740,61,0.166436232650203,1
746,741,61,0.150974867790544,1
746,742,61,0.132801573276274,1
746,743,61,0.123228406008689,1
747,734,61,0.120831872609355,1
747,735,61,0.138842834799114,1
747,736,61,0.165374406834577,1
747,737,61,0.176454129718319,1
747,738,61,0.192565624702929,1
747,739,61,0.218345997547209,1
747,740,61,0.183661183232117,1
747,741,61,0.125718400618653,1
748,735,61,0.166347234871885,1
748,736,61,0.200504657562176,1
748,737,61,0.192352651853504,1
748,738,61,0.209489323045942,1
748,739,61,0.228083817181958,1
748,740,61,0.159556210935546,1
749,734,61,0.122876925435195,1
749,735,61,0.179078439487964,1
749,736,61,0.183249157789186,1
749,737,61,0.149202284542467,1
749,738,61,0.143711685732157,1
749,739,61,0.139654143115682,1
750,734,61,0.118999415773219,1
750,735,61,0.137881124123554,1
750,736,61,0.118535819432941,1
751,731,61,0.131001220177559,1
751,732,61,0.158492300614592,1
751,733,61,0.14556357439762,1
751,734,61,0.144191110180686,1
751,735,61,0.122537245281693,1
752,730,61,0.122074002247403,1
752,731,61,0.15611678892153,1
752,732,61,0.17224531325475,1
752,733,61,0.17123509366707,1
752,734,61,0.183504845332531,1
752,735,61,0.148637666243422,1
753,730,61,0.1173281371287,1
753,733,61,0.128246092977511,1
753,734,61,0.159776520772649,1
753,735,61,0.138794726300446,1
772,720,61,0.126091550626063,1
772,721,61,0.118149879748774,1
773,719,61,0.120796730440439,1
773,720,61,0.149694486890888,1
773,721,61,0.134574839582594,1
774,720,61,0.130614774088143,1
774,721,61,0.115875908196595,1
775,759,61,0.119565706387273,1
776,760,61,0.127125806797777,1
777,761,61,0.122589758328341,1
777,762,61,0.14969325031993,1
778,762,61,0.114724684189199,1
779,723,61,0.117862324005333,1
779,724,61,0.12509664096452,1
780,723,61,0.129332108476432,1
780,724,61,0.136757375545139,1
781,723,61,0.13057933749757,1
781,724,61,0.139093540728031,1
781,725,61,0.130056421081947,1
781,726,61,0.149315825310068,1
781,727,61,0.156035999618995,1
781,753,61,0.119640112628296,1
781,754,61,0.121084262630147,1
782,724,61,0.122866031833906,1
782,725,61,0.132989108094579,1
782,726,61,0.177970566125267,1
782,727,61,0.198948038487553,1
782,728,61,0.118351299492398,1
782,753,61,0.124319685766828,1
782,754,61,0.136893657441486,1
782,755,61,0.148010018156159,1
782,756,61,0.138038580825434,1
783,726,61,0.128731924041285,1
783,727,61,0.14816060894501,1
783,728,61,0.123525795435456,1
783,737,61,0.133745524437516,1
783,738,61,0.146458510241493,1
783,739,61,0.13322488095708,1
783,740,61,0.125943103226871,1
783,741,61,0.113991762694449,1
783,752,61,0.121721285102952,1
783,753,61,0.123738992045339,1
783,754,61,0.123405812722012,1
783,755,61,0.130727773119896,1
783,756,61,0.13031255614621,1
783,757,61,0.123698644501537,1
784,728,61,0.122305888744039,1
784,729,61,0.126280851974307,1
784,730,61,0.118637100482767,1
784,731,61,0.116927782560232,1
784,737,61,0.143149505244427,1
784,738,61,0.139495803148833,1
784,739,61,0.11621214950515,1
784,740,61,0.114374640393389,1
784,741,61,0.136118904517785,1
784,742,61,0.155935236751285,1
784,743,61,0.145557061790579,1
784,744,61,0.120806599454364,1
784,751,61,0.114957124198549,1
784,752,61,0.137022508135224,1
784,753,61,0.119570440687509,1
785,730,61,0.117235358976313,1
785,731,61,0.153166848799829,1
785,732,61,0.176288912061574,1
785,733,61,0.162738543959132,1
785,734,61,0.126176391170591,1
785,736,61,0.115579366704199,1
785,737,61,0.12168005429418,1
785,740,61,0.127348978413381,1
785,741,61,0.174009464266585,1
785,742,61,0.194803935904076,1
785,743,61,0.194388082979611,1
785,744,61,0.195531604916474,1
785,745,61,0.210187055264311,1
785,746,61,0.228601810867485,1
785,747,61,0.202382949961791,1
785,748,61,0.132149853274379,1
785,751,61,0.131623415575744,1
785,752,61,0.133995417762661,1
785,753,61,0.118837566300224,1
786,731,61,0.126252540387821,1
786,732,61,0.159036238736487,1
786,733,61,0.16515700588344,1
786,734,61,0.141596560552077,1
786,735,61,0.123037149700646,1
786,736,61,0.116737621500752,1
786,737,61,0.119403833360546,1
786,738,61,0.130650352001111,1
786,739,61,0.155505946422419,1
786,740,61,0.190587311378177,1
786,741,61,0.19662346174106,1
786,742,61,0.184170120507491,1
786,743,61,0.203780722664315,1
786,744,61,0.231287148358083,1
786,745,61,0.254505428617163,1
786,746,61,0.272367990515195,1
786,747,61,0.2287553812035,1
786,748,61,0.143126269487298,1
786,750,61,0.13131506188649,1
786,751,61,0.144879291360519,1
786,752,61,0.139901292430989,1
787,740,61,0.199618990112049,1
787,741,61,0.156264388386352,1
787,742,61,0.148763478505665,1
787,743,61,0.194955916363145,1
787,744,61,0.212006934407283,1
787,745,61,0.192739050835456,1
787,746,61,0.1744623672123,1
787,747,61,0.14787619762486,1
787,748,61,0.122015647875091,1
787,749,61,0.124627909910553,1
787,751,61,0.127053320185954,1
742,742,62,0.23110851685067,1
742,743,62,0.209181263778345,1
742,744,62,0.160772796550678,1
743,739,62,0.287582830233458,1
743,740,62,0.263270549760133,1
743,741,62,0.200146735042838,1
743,742,62,0.164241743168405,1
743,743,62,0.161091690535234,1
744,737,62,0.210085585784625,1
744,738,62,0.216184919034987,1
744,739,62,0.220279570557043,1
744,740,62,0.206139652529685,1
744,741,62,0.172729436672917,1
744,742,62,0.154464282601828,1
745,736,62,0.145394764796667,1
745,737,62,0.13964130633146,1
745,738,62,0.146565903484907,1
745,739,62,0.162048466703831,1
745,740,62,0.179963906731365,1
745,741,62,0.174557241646881,1
745,742,62,0.162148216761043,1
745,743,62,0.159036580265609,1
746,735,62,0.122891175443368,1
746,736,62,0.114563859303569,1
746,737,62,0.130109228550252,1
746,738,62,0.1506614147182,1
746,739,62,0.181564135541744,1
746,740,62,0.195289931843977,1
746,741,62,0.164013896136896,1
746,742,62,0.127169958269381,1
746,743,62,0.113905838678225,1
747,736,62,0.135506896108914,1
747,737,62,0.176053645604322,1
747,738,62,0.188897495946167,1
747,739,62,0.204866149319924,1
747,740,62,0.182179217712708,1
747,741,62,0.124515876581833,1
748,735,62,0.134665627444583,1
748,736,62,0.192559477178741,1
748,737,62,0.216728209429237,1
748,738,62,0.191588804307959,1
748,739,62,0.179562998650183,1
748,740,62,0.139219046791751,1
749,735,62,0.159003463717689,1
749,736,62,0.184187597377019,1
749,737,62,0.166860847563164,1
749,738,62,0.131441404107714,1
749,739,62,0.117416298749513,1
750,735,62,0.126815674801718,1
751,732,62,0.125812285796468,1
751,733,62,0.124707839501852,1
751,734,62,0.129719861798003,1
752,732,62,0.123395955484953,1
752,733,62,0.129254793349443,1
752,734,62,0.141077188973198,1
752,735,62,0.114518318161746,1
773,720,62,0.120456167021967,1
773,758,62,0.121702124141549,1
774,759,62,0.135506012843945,1
775,760,62,0.127546076047088,1
777,762,62,0.114384721390906,1
779,724,62,0.128019423632628,1
779,725,62,0.128215567340168,1
780,724,62,0.116296271660837,1
780,725,62,0.113753398921371,1
781,726,62,0.163437748285783,1
781,727,62,0.190806584851049,1
782,726,62,0.176199066348886,1
782,727,62,0.218303200415224,1
782,728,62,0.139558880044515,1
783,727,62,0.134776329987416,1
783,728,62,0.12540009547741,1
783,729,62,0.118288411026576,1
783,757,62,0.12610242067362,1
783,758,62,0.12363070376009,1
784,728,62,0.115362342612782,1
784,729,62,0.126850781640035,1
784,730,62,0.117736876825944,1
784,738,62,0.115721277942617,1
784,741,62,0.127786312341901,1
784,742,62,0.135966959389314,1
785,731,62,0.124407176106265,1
785,732,62,0.166767339245069,1
785,733,62,0.161037304966851,1
785,734,62,0.12701244268317,1
785,741,62,0.153761486330968,1
785,742,62,0.174586460052069,1
785,743,62,0.164131982774873,1
785,744,62,0.156595966055868,1
785,745,62,0.165441193443131,1
785,746,62,0.186014365986752,1
785,747,62,0.17828251175873,1
785,748,62,0.127217006850085,1
785,753,62,0.121596014576557,1
786,732,62,0.141204767765379,1
786,733,62,0.147760772558658,1
786,734,62,0.131433490053589,1
786,735,62,0.118196127502572,1
786,738,62,0.13042487211972,1
786,739,62,0.14660612148318,1
786,740,62,0.162805566105011,1
786,741,62,0.168054762710748,1
786,742,62,0.176866638012766,1
786,743,62,0.20863260313308,1
786,744,62,0.229604611029422,1
786,745,62,0.231524781965453,1
786,746,62,0.245078800896436,1
786,747,62,0.223847466405076,1
786,748,62,0.160100949884346,1
786,749,62,0.12556662036631,1
786,750,62,0.115993335330062,1
786,751,62,0.114675633541231,1
786,752,62,0.133430057521041,1
786,753,62,0.138622206986621,1
787,741,62,0.142122432961131,1
787,742,62,0.143962014801354,1
787,743,62,0.202613352573278,1
787,744,62,0.230016495149957,1
787,745,62,0.203680949053371,1
787,746,62,0.181617390530966,1
787,747,62,0.162873883706178,1
787,748,62,0.152710730769626,1
787,749,62,0.17172326832723,1
787,750,62,0.17216579585377,1
788,745,62,0.120982098315352,1
788,748,62,0.138908938349424,1
788,749,62,0.180962102138594,1
742,741,63,0.215826619655929,1
742,742,63,0.202894230833551,1
742,743,63,0.190111054906671,1
742,744,63,0.169279886553918,1
743,739,63,0.274963847375959,1
743,740,63,0.243671818684498,1
743,741,63,0.182894992090186,1
743,742,63,0.142940041901148,1
743,743,63,0.149918035366212,1
743,744,63,0.184350153461989,1
744,738,63,0.195350500267146,1
744,739,63,0.191922395821606,1
744,740,63,0.184030611749789,1
744,741,63,0.162124568813596,1
744,742,63,0.142791806485549,1
744,743,63,0.163943788452057,1
745,737,63,0.133954599144208,1
745,738,63,0.141542799157605,1
745,739,63,0.15824781287106,1
745,740,63,0.182783783142104,1
745,741,63,0.17609356918094,1
745,742,63,0.151324181420646,1
745,743,63,0.15369877451814,1
745,744,63,0.15877907908486,1
746,737,63,0.118164541947266,1
746,738,63,0.144013220615847,1
746,739,63,0.179768269429074,1
746,740,63,0.200475003412936,1
746,741,63,0.16633651792359,1
746,742,63,0.120285579114208,1
747,736,63,0.115661698776214,1
747,737,63,0.157905282715922,1
747,738,63,0.161544499266019,1
747,739,63,0.167985773828204,1
747,740,63,0.161611109221578,1
747,741,63,0.119980758484832,1
748,736,63,0.165906120569296,1
748,737,63,0.212847755550696,1
748,738,63,0.166217241822121,1
748,739,63,0.131947738695645,1
749,735,63,0.123324952758279,1
749,736,63,0.158696558582985,1
749,737,63,0.169064099033458,1
749,738,63,0.121174061235371,1
779,724,63,0.124462539154547,1
779,725,63,0.143581539583131,1
780,725,63,0.123907130364916,1
780,726,63,0.12934738307197,1
780,727,63,0.122769249546991,1
781,725,63,0.115127664998843,1
781,726,63,0.170038293187252,1
781,727,63,0.200806239553331,1
781,728,63,0.138815630238056,1
782,726,63,0.17036810432683,1
782,727,63,0.209716192597552,1
782,728,63,0.162635343280106,1
783,727,63,0.130168077550947,1
783,728,63,0.132598551878839,1
783,729,63,0.128964764464088,1
783,730,63,0.114095893745909,1
783,757,63,0.117628859408619,1
783,758,63,0.115931577443401,1
784,729,63,0.120617886949433,1
784,730,63,0.114059726989629,1
784,757,63,0.115665761795073,1
785,732,63,0.138667818789642,1
785,733,63,0.136907707242933,1
785,734,63,0.117523892199654,1
785,741,63,0.12633089187904,1
785,742,63,0.145863731387958,1
785,743,63,0.138245759456659,1
785,744,63,0.125637316894461,1
785,745,63,0.125087549223768,1
785,746,63,0.135103408894021,1
785,747,63,0.131880363243779,1
785,753,63,0.116206402394416,1
786,733,63,0.125765837835943,1
786,734,63,0.117787411359061,1
786,735,63,0.116082168232252,1
786,737,63,0.118336507748377,1
786,738,63,0.131789245629534,1
786,739,63,0.133632866934884,1
786,740,63,0.132290009759725,1
786,741,63,0.13649912064495,1
786,742,63,0.162919165756943,1
786,743,63,0.200260570232096,1
786,744,63,0.211174097979193,1
786,745,63,0.20196286914234,1
786,746,63,0.206401734911408,1
786,747,63,0.19457050663796,1
786,748,63,0.158828094402229,1
786,749,63,0.13340103932258,1
786,752,63,0.126582999255043,1
786,753,63,0.134076819462242,1
787,742,63,0.140502760544559,1
787,743,63,0.195143250974724,1
787,744,63,0.222445336262036,1
787,745,63,0.201173277367152,1
787,746,63,0.184675889805841,1
787,747,63,0.174521710841378,1
787,748,63,0.178001798374585,1
787,749,63,0.204080067050881,1
787,750,63,0.192655022894699,1
787,751,63,0.139284408399487,1
788,744,63,0.137844509846355,1
788,745,63,0.123125228883396,1
788,748,63,0.135120932871014,1
788,749,63,0.175939268679217,1
788,750,63,0.179184125085771,1
742,741,64,0.193666549714533,1
742,743,64,0.17071459150903,1
742,744,64,0.166476780400732,1
743,739,64,0.230088734447588,1
743,740,64,0.203189288440799,1
743,741,64,0.158078861947711,1
743,742,64,0.127929083291557,1
743,743,64,0.140647769098803,1
744,738,64,0.164525023909394,1
744,739,64,0.166080865710844,1
744,740,64,0.162190436826581,1
744,741,64,0.142419633958038,1
744,742,64,0.124382456463987,1
744,743,64,0.157545369906187,1
745,737,64,0.119033121164451,1
745,738,64,0.131306052583802,1
745,739,64,0.151529628852531,1
745,740,64,0.17250872642236,1
745,741,64,0.161989723694932,1
745,742,64,0.132467946432029,1
745,743,64,0.142643712392344,1
745,744,64,0.170140528163245,1
746,738,64,0.126742528685384,1
746,739,64,0.159030314972759,1
746,740,64,0.179889818465731,1
746,741,64,0.155978033883269,1
747,737,64,0.129238305736681,1
747,738,64,0.128647790108733,1
747,739,64,0.130408761366678,1
747,740,64,0.134127989946136,1
748,736,64,0.130109852724163,1
748,737,64,0.176804420828321,1
748,738,64,0.135615785014343,1
749,736,64,0.1249220253685,1
749,737,64,0.151231097069737,1
759,728,64,0.117730022689782,1
760,727,64,0.122999817034606,1
760,728,64,0.132705780246125,1
779,725,64,0.135682771829623,1
779,726,64,0.119731442226133,1
780,725,64,0.128218217135077,1
780,726,64,0.151756934148192,1
780,727,64,0.143499431271575,1
781,726,64,0.163751036481999,1
781,727,64,0.18812231905528,1
781,728,64,0.157984870778099,1
782,727,64,0.187097625698969,1
782,728,64,0.182641247729773,1
782,729,64,0.139291627618504,1
783,728,64,0.152521982934096,1
783,729,64,0.143291027846259,1
783,730,64,0.118639078996298,1
784,729,64,0.114245236186937,1
784,757,64,0.120672107641688,1
785,742,64,0.117549141800913,1
785,743,64,0.11651302488433,1
786,737,64,0.115785450086861,1
786,738,64,0.119134001800824,1
786,742,64,0.140916599624893,1
786,743,64,0.173172517712171,1
786,744,64,0.178317206406728,1
786,745,64,0.172221877290895,1
786,746,64,0.168802216858462,1
786,747,64,0.156418759549272,1
786,748,64,0.139818230193266,1
786,749,64,0.128206404938219,1
786,753,64,0.121153557711214,1
787,742,64,0.132216251246346,1
787,743,64,0.170655848500131,1
787,744,64,0.191067783967803,1
787,745,64,0.185394997036469,1
787,746,64,0.178516836066681,1
787,747,64,0.173215880133736,1
787,748,64,0.182681913248965,1
787,749,64,0.204833009218271,1
787,750,64,0.182862758807235,1
787,751,64,0.133012426289772,1
788,743,64,0.12174433243022,1
788,744,64,0.131511382247024,1
788,745,64,0.1249980803708,1
788,746,64,0.115628699996957,1
788,748,64,0.13108706175572,1
788,749,64,0.16485959290294,1
788,750,64,0.163988505213242,1
742,743,65,0.159871159669905,1
742,744,65,0.160566371638894,1
743,740,65,0.162635201957711,1
743,741,65,0.142823521586383,1
743,742,65,0.130200687693618,1
743,743,65,0.141618748168108,1
744,739,65,0.149809299560045,1
744,740,65,0.149041447879971,1
744,741,65,0.131018779485151,1
744,742,65,0.118375100539107,1
744,743,65,0.151245853483159,1
745,738,65,0.125345333049307,1
745,739,65,0.149078686331081,1
745,740,65,0.161325343561809,1
745,741,65,0.146322852519058,1
745,742,65,0.121930465801441,1
745,743,65,0.137030398635617,1
745,744,65,0.177381958349652,1
746,738,65,0.118390104266721,1
746,739,65,0.140274524876463,1
746,740,65,0.153404388192269,1
746,741,65,0.140175481431227,1
747,738,65,0.113779414018937,1
747,739,65,0.113837591738255,1
747,740,65,0.116639331774956,1
748,737,65,0.13292278078381,1
748,738,65,0.115516136709255,1
749,737,65,0.119209809488932,1
758,728,65,0.11771054375299,1
759,727,65,0.116915405073794,1
759,728,65,0.140036325979513,1
759,729,65,0.119059018493354,1
760,727,65,0.119344583946398,1
760,728,65,0.135706879074855,1
761,726,65,0.118988793039853,1
761,728,65,0.114275985584739,1
762,725,65,0.135804744833465,1
762,726,65,0.123992877728146,1
779,725,65,0.117119015314543,1
779,726,65,0.129373339285205,1
780,726,65,0.168273553332104,1
780,727,65,0.155731037667223,1
780,762,65,0.113920818852106,1
780,763,65,0.12487669621027,1
781,727,65,0.166281190205906,1
781,728,65,0.158328331305671,1
781,729,65,0.12001844445686,1
781,762,65,0.126860721315158,1
782,728,65,0.187813564952574,1
782,729,65,0.161896286038035,1
783,729,65,0.159151993554945,1
784,757,65,0.114922511988614,1
786,743,65,0.128958216526448,1
786,744,65,0.130098382056427,1
786,745,65,0.13287338860672,1
786,746,65,0.130706362777038,1
786,747,65,0.120525179458243,1
786,748,65,0.11466729551992,1
787,743,65,0.130086687628232,1
787,744,65,0.14124486799499,1
787,745,65,0.150726352358751,1
787,746,65,0.154296792009896,1
787,747,65,0.152591772643546,1
787,748,65,0.161841818031588,1
787,749,65,0.17150814031128,1
787,750,65,0.146022424660796,1
788,748,65,0.125465115556025,1
742,744,66,0.138094897799884,1
742,745,66,0.152717184492336,1
743,743,66,0.126876478762212,1
743,744,66,0.143030134928028,1
744,740,66,0.124548734038695,1
744,743,66,0.127795404082653,1
744,744,66,0.176171378936312,1
745,739,66,0.1333763903415,1
745,740,66,0.136925478534117,1
745,741,66,0.118240055213718,1
745,743,66,0.11657702037558,1
745,744,66,0.15854635643072,1
745,745,66,0.165667745019351,1
746,739,66,0.115573560709133,1
746,740,66,0.120986279102874,1
755,731,66,0.114393942677187,1
758,728,66,0.121899551527511,1
759,727,66,0.12218034734972,1
759,728,66,0.140054474130417,1
759,729,66,0.117881155214481,1
760,728,66,0.11944836169187,1
762,726,66,0.118550092994847,1
779,726,66,0.124039196143142,1
780,727,66,0.144100805170214,1
780,762,66,0.119582123338838,1
780,763,66,0.142160919760065,1
781,728,66,0.136701470761009,1
781,729,66,0.120229992305467,1
781,762,66,0.136104395418554,1
782,729,66,0.161123158321878,1
785,755,66,0.131329394332727,1
787,746,66,0.115612848334973,1
787,747,66,0.114725096379518,1
787,748,66,0.118893859720941,1
787,749,66,0.121288296838081,1
743,744,67,0.119088660865728,1
743,745,67,0.130045127067205,1
744,744,67,0.136450976815684,1
744,745,67,0.156004084311433,1
745,740,67,0.116021552701618,1
745,744,67,0.130098758916148,1
745,745,67,0.152214771600869,1
755,731,67,0.124256349780088,1
759,728,67,0.125339173748253,1
780,762,67,0.114966227716167,1
780,763,67,0.146919880754047,1
781,762,67,0.138193953021986,1
784,755,67,0.121033151030584,1
785,755,67,0.145859150186984,1
744,745,68,0.12391124049124,1
744,746,68,0.119663701691412,1
745,745,68,0.130095049203276,1
780,763,68,0.133339705403104,1
784,755,68,0.129543138142924,1
744,746,69,0.117270677798223,1
745,745,69,0.118767293739258,1
780,763,69,0.114762381938093,1
