x,y,z,signal,mito.p
75,1018,1,0.149356043308342,1
75,1019,1,0.116381194643429,1
76,1018,1,0.141262144657792,1
78,1004,1,0.173570340254393,1
78,1005,1,0.150910566100771,1
79,1003,1,0.202141312219893,1
79,1004,1,0.219555363943324,1
79,1005,1,0.197402701650806,1
80,1002,1,0.148394862591764,1
80,1003,1,0.251492647137105,1
80,1004,1,0.340004888812721,2
80,1005,1,0.324845471027072,2
80,1006,1,0.232959581135495,1
81,1002,1,0.183869574880566,1
81,1003,1,0.307930098928503,2
81,1004,1,0.437823846156818,2
81,1005,1,0.426296319710451,2
81,1006,1,0.282498450871012,2
81,1007,1,0.152159479213784,1
82,1002,1,0.218343406636632,1
82,1003,1,0.31296565140344,2
82,1004,1,0.407505575875099,2
82,1005,1,0.397879966222063,2
82,1006,1,0.275155621866117,2
82,1007,1,0.155519266058158,1
83,1001,1,0.183590981332348,1
83,1002,1,0.252501853914286,1
83,1003,1,0.306046153633083,2
83,1004,1,0.334563175774251,2
83,1005,1,0.312444101104303,2
83,1006,1,0.235382694921975,1
84,1001,1,0.210922473454708,1
84,1002,1,0.304389360534063,2
84,1003,1,0.36535372194668,2
84,1004,1,0.3512779642867,2
84,1005,1,0.29213063201542,2
84,1006,1,0.211374092722,1
85,1000,1,0.175907447586586,1
85,1001,1,0.243914563451824,2
85,1002,1,0.376035457412072,2
85,1003,1,0.484920523582515,2
85,1004,1,0.465615130691653,2
85,1005,1,0.356985693180224,2
85,1006,1,0.225408513581412,2
86,1000,1,0.224257136474754,1
86,1001,1,0.293872100782841,2
86,1002,1,0.431459957382819,2
86,1003,1,0.562726227712398,2
86,1004,1,0.557525516465048,2
86,1005,1,0.430463446067464,2
86,1006,1,0.258963843984221,2
86,1007,1,0.160748335999459,1
86,1008,1,0.127809701198291,1
87,999,1,0.202300818096502,1
87,1000,1,0.26899570841572,2
87,1001,1,0.337975405004075,2
87,1002,1,0.442016269222554,2
87,1003,1,0.551023508603566,2
87,1004,1,0.570818583593469,2
87,1005,1,0.470626846789282,2
87,1006,1,0.298049355244837,2
87,1007,1,0.18405849936909,1
87,1008,1,0.144240973432426,1
87,1009,1,0.128501415438002,1
88,999,1,0.206306083203654,1
88,1000,1,0.286726793378838,2
88,1001,1,0.363160539697037,2
88,1002,1,0.454939542750449,2
88,1003,1,0.546597997800835,2
88,1004,1,0.58803523148467,2
88,1005,1,0.509965961087915,2
88,1006,1,0.334602322077695,2
88,1007,1,0.195626373359259,1
88,1008,1,0.141130950367669,1
88,1009,1,0.126357766687843,1
89,998,1,0.168106557368554,1
89,999,1,0.221279685593473,1
89,1000,1,0.300966178818618,2
89,1001,1,0.381472106398051,2
89,1002,1,0.48334779375485,2
89,1003,1,0.55331099999821,2
89,1004,1,0.5702045848942,2
89,1005,1,0.483726726203593,2
89,1006,1,0.317719100824013,2
89,1007,1,0.181691702557059,1
89,1008,1,0.12379354248985,1
90,998,1,0.18594398743399,1
90,999,1,0.261428742092188,2
90,1000,1,0.345034034672413,2
90,1001,1,0.409124894985684,2
90,1002,1,0.48617169785385,2
90,1003,1,0.507521978694424,2
90,1004,1,0.467733459179356,2
90,1005,1,0.372811540273726,2
90,1006,1,0.256059786533464,2
90,1007,1,0.166149536617999,1
90,1008,1,0.118941815120347,1
91,998,1,0.186172717730468,1
91,999,1,0.259821058525467,1
91,1000,1,0.328195447741852,2
91,1001,1,0.361010107471913,2
91,1002,1,0.388532007967945,2
91,1003,1,0.37446621353682,2
91,1004,1,0.319160730576485,2
91,1005,1,0.255415709717771,2
91,1006,1,0.203221274409557,1
91,1007,1,0.16306438629478,1
91,1008,1,0.130253130079068,1
92,999,1,0.211046154104158,1
92,1000,1,0.25770998458738,1
92,1001,1,0.290052698178986,2
92,1002,1,0.306120018138258,2
92,1003,1,0.276774540563249,2
92,1004,1,0.225996862265969,1
92,1005,1,0.197765758883832,1
92,1006,1,0.189868427908007,1
92,1007,1,0.181489811738785,1
92,1008,1,0.15539598582216,1
92,1009,1,0.121756109296479,1
93,1000,1,0.199358580045334,1
93,1001,1,0.25180442789444,1
93,1002,1,0.280610807639587,1
93,1003,1,0.235638771101907,1
93,1004,1,0.181663614731032,1
93,1006,1,0.209628784696179,1
93,1007,1,0.218677563439859,1
93,1008,1,0.180630135832491,1
93,1009,1,0.136572196100086,1
94,1001,1,0.223827210195111,1
94,1002,1,0.253241841528792,1
94,1003,1,0.200348990943967,1
94,1004,1,0.15303611380749,1
94,1005,1,0.177668018431078,1
94,1006,1,0.235403186669266,1
94,1007,1,0.247028484659313,1
94,1008,1,0.193086221075899,1
94,1009,1,0.142931067929059,1
95,1003,1,0.149794142733169,1
95,1006,1,0.20324113020607,1
95,1007,1,0.213196986742735,1
95,1008,1,0.182452923861429,1
95,1009,1,0.150947875213079,1
95,1010,1,0.122133357653347,1
96,1007,1,0.179270543730378,1
96,1008,1,0.189580613073509,1
96,1009,1,0.182653884307269,1
96,1010,1,0.159176642536025,1
96,1011,1,0.121334980335931,1
97,1008,1,0.217093056745935,1
97,1009,1,0.231453390602193,1
97,1010,1,0.212775704682925,1
97,1011,1,0.166667954270711,1
98,1007,1,0.167644138714903,1
98,1008,1,0.227235246860547,1
98,1009,1,0.255920395544425,1
98,1010,1,0.244818155292397,1
98,1011,1,0.19906102574244,1
98,1012,1,0.1327017054504,1
99,1008,1,0.187455041813057,1
99,1009,1,0.215955411465335,1
99,1010,1,0.226474626176356,1
99,1011,1,0.208638679996069,1
99,1012,1,0.151706434945674,1
100,1010,1,0.184534638071933,1
100,1011,1,0.19291025114026,1
100,1012,1,0.156747699200746,1
101,1011,1,0.148600828205764,1
101,1012,1,0.133653594219499,1
75,1017,2,0.156203148681806,1
75,1018,2,0.229587299036021,1
75,1019,2,0.167450609471672,1
76,1017,2,0.133486091850701,1
76,1018,2,0.177556102871021,1
76,1019,2,0.121571212496216,1
77,1005,2,0.147237078869862,1
77,1006,2,0.161571173868095,1
78,1004,2,0.149803352242584,1
78,1005,2,0.137513238375362,1
78,1006,2,0.138483805254348,1
79,1003,2,0.172864776419963,1
79,1004,2,0.190084132990404,2
79,1005,2,0.174346388633383,2
79,1006,2,0.152422374199279,1
80,1002,2,0.129432682914283,1
80,1003,2,0.227931212548976,2
80,1004,2,0.329340064927277,2
80,1005,2,0.314542974208946,2
80,1006,2,0.215916430038019,2
80,1007,2,0.124867828229978,1
81,1002,2,0.170826389300425,2
81,1003,2,0.314482040702923,2
81,1004,2,0.483343789620322,2
81,1005,2,0.460688773320668,2
81,1006,2,0.279733572425702,2
81,1007,2,0.141465366261954,1
82,1001,2,0.132750355684915,1
82,1002,2,0.206331285697448,2
82,1003,2,0.332799754928124,2
82,1004,2,0.469625106545309,2
82,1005,2,0.443868157888018,2
82,1006,2,0.278454863841054,2
82,1007,2,0.14641507715873,1
83,1001,2,0.163542138428301,1
83,1002,2,0.230797584027705,2
83,1003,2,0.299812045925256,2
83,1004,2,0.349834732880417,2
83,1005,2,0.324115941269804,2
83,1006,2,0.23036829369884,2
83,1007,2,0.141934674382367,1
84,1000,2,0.133148272442067,1
84,1001,2,0.182540885275516,1
84,1002,2,0.275513120418269,2
84,1003,2,0.349346887972513,2
84,1004,2,0.349019114230798,2
84,1005,2,0.293218885118931,2
84,1006,2,0.203617754389026,2
84,1007,2,0.132206782645874,1
85,1000,2,0.160132676762048,1
85,1001,2,0.222550597892657,2
85,1002,2,0.370246703678688,2
85,1003,2,0.51101702284778,2
85,1004,2,0.500739681415983,2
85,1005,2,0.373260474415512,2
85,1006,2,0.216419938178047,2
85,1007,2,0.133210077436193,1
86,999,2,0.171262003806472,1
86,1000,2,0.222063059183275,2
86,1001,2,0.3028964543059,2
86,1002,2,0.462915119225697,2
86,1003,2,0.619098459218455,2
86,1004,2,0.604560436004085,2
86,1005,2,0.437120296166517,2
86,1006,2,0.236457993472601,2
86,1007,2,0.142651390909145,1
86,1008,2,0.120663781397243,1
87,998,2,0.142591894180805,1
87,999,2,0.193167976081467,1
87,1000,2,0.282157345716692,2
87,1001,2,0.366300464225225,2
87,1002,2,0.464056109136314,2
87,1003,2,0.56237325147689,2
87,1004,2,0.585615744972998,2
87,1005,2,0.473373965720275,2
87,1006,2,0.275474822049195,2
87,1007,2,0.161622426790053,2
87,1008,2,0.132353640168121,1
87,1009,2,0.116673861546826,1
88,998,2,0.144499322547545,1
88,999,2,0.197184629418292,2
88,1000,2,0.298448190597557,2
88,1001,2,0.37859318077989,2
88,1002,2,0.445974379757206,2
88,1003,2,0.527446552105708,2
88,1004,2,0.608250552170151,2
88,1005,2,0.5400513320625,2
88,1006,2,0.322889592632543,2
88,1007,2,0.170799384946094,2
88,1008,2,0.12499556012142,1
89,998,2,0.155094403831005,1
89,999,2,0.211261576541764,2
89,1000,2,0.29715320638374,2
89,1001,2,0.357487458344046,2
89,1002,2,0.456962148869199,2
89,1003,2,0.558244800348671,2
89,1004,2,0.607371809517385,2
89,1005,2,0.507955084727958,2
89,1006,2,0.299772028133709,2
89,1007,2,0.155564206579801,2
90,997,2,0.148943935427348,1
90,998,2,0.186835566870978,1
90,999,2,0.286450861402395,2
90,1000,2,0.379091130239045,2
90,1001,2,0.397983649752606,2
90,1002,2,0.494536429097754,2
90,1003,2,0.566542309239969,2
90,1004,2,0.509916922216813,2
90,1005,2,0.371102222351192,2
90,1006,2,0.234545807251893,2
90,1007,2,0.145679258554881,1
91,997,2,0.146694966162237,1
91,998,2,0.197279409637942,1
91,999,2,0.300860375452149,2
91,1000,2,0.369085269128245,2
91,1001,2,0.353030550415869,2
91,1002,2,0.393847708537446,2
91,1003,2,0.410112597205076,2
91,1004,2,0.330381775855333,2
91,1005,2,0.241863198225669,2
91,1006,2,0.189872420265669,1
91,1007,2,0.148610508789829,1
91,1008,2,0.116694553500843,1
92,998,2,0.168339692213014,1
92,999,2,0.221144251631496,1
92,1000,2,0.263379650649155,2
92,1001,2,0.277864654411628,2
92,1002,2,0.299366880380674,2
92,1003,2,0.27623080264808,2
92,1004,2,0.218217252845267,2
92,1005,2,0.186011892844838,1
92,1006,2,0.179972503843734,1
92,1007,2,0.170239312517424,1
92,1008,2,0.140386923288037,1
93,999,2,0.152681995215954,1
93,1000,2,0.187037363474323,1
93,1001,2,0.231770824255332,1
93,1002,2,0.250996888175075,2
93,1003,2,0.206859643025283,1
93,1004,2,0.163006267459793,1
93,1005,2,0.167344075939495,1
93,1006,2,0.210442189294942,1
93,1007,2,0.230360921380562,1
93,1008,2,0.173396443047216,1
93,1009,2,0.120182013352328,1
94,1001,2,0.198701689999151,1
94,1002,2,0.215584086872195,1
94,1003,2,0.167845158045074,1
94,1004,2,0.136459161737734,1
94,1005,2,0.17008233866706,1
94,1006,2,0.252092866902851,1
94,1007,2,0.282617232344099,1
94,1008,2,0.196209952412981,1
94,1009,2,0.12762332051288,1
95,1003,2,0.130854633523236,1
95,1005,2,0.148627879667561,1
95,1006,2,0.198451313822489,1
95,1007,2,0.217085166245542,1
95,1008,2,0.174630187556488,1
95,1009,2,0.134230648889314,1
96,1006,2,0.148641234633898,1
96,1007,2,0.177481496423271,1
96,1008,2,0.184994925112792,1
96,1009,2,0.161571833372605,1
96,1010,2,0.133445261455381,1
97,1007,2,0.171753134460062,1
97,1008,2,0.209501570986851,1
97,1009,2,0.201244715837878,1
97,1010,2,0.176859136148959,1
97,1011,2,0.134717151234465,1
98,1007,2,0.158883233690053,1
98,1008,2,0.209354807679534,1
98,1009,2,0.227294460944096,1
98,1010,2,0.22029862552665,1
98,1011,2,0.174054604994955,1
99,1008,2,0.165101784157552,1
99,1009,2,0.197985797853011,1
99,1010,2,0.22318690197662,1
99,1011,2,0.202478601669545,1
99,1012,2,0.135835494231267,1
100,1009,2,0.15316470541017,1
100,1010,2,0.188897319293173,1
100,1011,2,0.192392940512976,1
100,1012,2,0.143559269529036,1
101,1010,2,0.137630276872241,1
101,1011,2,0.144281780274013,1
101,1012,2,0.124620219616886,1
74,1018,3,0.152281923292277,1
74,1019,3,0.126847637216744,1
75,1017,3,0.175396837996203,1
75,1018,3,0.263040571115832,1
75,1019,3,0.182658889475429,1
76,1005,3,0.114444241672978,1
76,1006,3,0.128126699107379,1
76,1017,3,0.135066217550376,1
76,1018,3,0.173168548908242,1
77,1004,3,0.134759053324614,1
77,1005,3,0.160154499295225,1
77,1006,3,0.161667485080359,1
77,1007,3,0.117258900931965,1
78,1003,3,0.139128694673813,1
78,1004,3,0.156178794122383,1
78,1005,3,0.161462390954462,1
78,1006,3,0.150180553491987,1
79,1003,3,0.156518450722153,1
79,1004,3,0.185804184254631,2
79,1005,3,0.183078534550829,2
79,1006,3,0.153755915873228,1
80,1002,3,0.124583617116554,1
80,1003,3,0.217543262789276,2
80,1004,3,0.31994412772002,2
80,1005,3,0.311056032539576,2
80,1006,3,0.208678627126419,2
80,1007,3,0.121886161230575,1
81,1002,3,0.172190385950519,2
81,1003,3,0.346637808319536,2
81,1004,3,0.541559995737717,2
81,1005,3,0.503719464116784,2
81,1006,3,0.289060402981752,2
81,1007,3,0.141757032131719,2
82,1001,3,0.130803580808004,1
82,1002,3,0.217552260315098,2
82,1003,3,0.403736224952843,2
82,1004,3,0.58635599167856,2
82,1005,3,0.528521497350346,2
82,1006,3,0.303850639563921,2
82,1007,3,0.150631878337623,2
83,1001,3,0.156853502567216,1
83,1002,3,0.229921338070586,2
83,1003,3,0.334729653555686,2
83,1004,3,0.411604019548091,2
83,1005,3,0.370393019465087,2
83,1006,3,0.244000628790443,2
83,1007,3,0.143465502119883,1
84,1000,3,0.128557591090056,1
84,1001,3,0.173225372287941,1
84,1002,3,0.269682417487271,2
84,1003,3,0.362745310946484,2
84,1004,3,0.382311184565258,2
84,1005,3,0.32291865793847,2
84,1006,3,0.214295344397495,2
84,1007,3,0.134562144120767,1
85,1000,3,0.154677055244526,1
85,1001,3,0.221861321464262,2
85,1002,3,0.3831838974625,2
85,1003,3,0.552839030306022,2
85,1004,3,0.561816252810314,2
85,1005,3,0.407061776447002,2
85,1006,3,0.2208948647116,2
85,1007,3,0.13175501027932,1
86,999,3,0.163845274965802,1
86,1000,3,0.224813522744285,2
86,1001,3,0.32844457557069,2
86,1002,3,0.505364362580882,2
86,1003,3,0.679777019640704,2
86,1004,3,0.665413576691754,2
86,1005,3,0.448197239709822,2
86,1006,3,0.224246160435401,2
86,1007,3,0.136438340238189,1
86,1008,3,0.119350013081743,1
87,998,3,0.130536187059598,1
87,999,3,0.190508312159313,2
87,1000,3,0.307755448001885,2
87,1001,3,0.41927302064089,2
87,1002,3,0.502384250127826,2
87,1003,3,0.581625271609867,2
87,1004,3,0.6113742952841,2
87,1005,3,0.479488750219167,2
87,1006,3,0.260661055288242,2
87,1007,3,0.150962914271291,1
87,1008,3,0.12413590776886,1
88,998,3,0.132513534681317,1
88,999,3,0.195316983305774,2
88,1000,3,0.32549903999697,2
88,1001,3,0.423795431499198,2
88,1002,3,0.459077650909,2
88,1003,3,0.528685007361484,2
88,1004,3,0.644888430208736,2
88,1005,3,0.576254926380925,2
88,1006,3,0.313412630585426,2
88,1007,3,0.155592365067026,2
89,998,3,0.143883569095204,1
89,999,3,0.194382006116622,2
89,1000,3,0.288914228517748,2
89,1001,3,0.34660603433437,2
89,1002,3,0.44138107216402,2
89,1003,3,0.587982235586505,2
89,1004,3,0.669387279797332,2
89,1005,3,0.545577084818592,2
89,1006,3,0.286560174275009,2
89,1007,3,0.140104042960501,2
90,997,3,0.164618803095413,1
90,998,3,0.186231696276692,1
90,999,3,0.281465925898639,2
90,1000,3,0.368748332984581,2
90,1001,3,0.363986521988964,2
90,1002,3,0.494622023361723,2
90,1003,3,0.646486268315265,2
90,1004,3,0.574570504753661,2
90,1005,3,0.383182908205734,2
90,1006,3,0.219743393390012,2
90,1007,3,0.13461199559564,1
91,997,3,0.157053591524952,1
91,998,3,0.210903182947776,2
91,999,3,0.321294604527649,2
91,1000,3,0.372801600598604,2
91,1001,3,0.330246177017229,2
91,1002,3,0.407275079048682,2
91,1003,3,0.469811510784453,2
91,1004,3,0.358569799460695,2
91,1005,3,0.238730080726179,2
91,1006,3,0.181228824605623,1
91,1007,3,0.14158012004678,1
92,998,3,0.17025040632544,1
92,999,3,0.224009233440007,2
92,1000,3,0.255798175226391,2
92,1001,3,0.265141611163866,2
92,1002,3,0.298384359982435,2
92,1003,3,0.285923234240268,2
92,1004,3,0.218219160697601,2
92,1005,3,0.178536844962455,1
92,1006,3,0.167680435016712,1
92,1007,3,0.158163761376571,1
92,1008,3,0.125754249399545,1
93,999,3,0.144379728470687,1
93,1000,3,0.177108393523327,1
93,1001,3,0.214919471201746,1
93,1002,3,0.220686107980297,2
93,1003,3,0.188045204135018,2
93,1004,3,0.155742991186476,1
93,1005,3,0.160602196866053,1
93,1006,3,0.204807194327432,1
93,1007,3,0.235216805983854,1
93,1008,3,0.162265290588522,1
94,1001,3,0.174589239392506,1
94,1002,3,0.174467949446907,1
94,1003,3,0.147945669358921,1
94,1005,3,0.165416980206103,1
94,1006,3,0.259454421125098,1
94,1007,3,0.313791091959519,1
94,1008,3,0.195377952142396,1
94,1009,3,0.115116264992304,1
95,1005,3,0.145048053854008,1
95,1006,3,0.19403152657676,1
95,1007,3,0.223978118959351,1
95,1008,3,0.162388358840926,1
95,1009,3,0.117324945597944,1
96,1006,3,0.143314970215363,1
96,1007,3,0.175504843636662,1
96,1008,3,0.174522158362296,1
96,1009,3,0.141266831850563,1
96,1010,3,0.114226982044236,1
97,1007,3,0.175821335140501,1
97,1008,3,0.205440200888842,1
97,1009,3,0.178151388129804,1
97,1010,3,0.14996582588949,1
98,1007,3,0.154473668764236,1
98,1008,3,0.193719898918686,1
98,1009,3,0.205981041694912,1
98,1010,3,0.208081846205621,1
98,1011,3,0.158563397556197,1
99,1008,3,0.145248013266216,1
99,1009,3,0.190651848605275,1
99,1010,3,0.233382205758059,1
99,1011,3,0.19702626589771,1
99,1012,3,0.119736859584612,1
100,1009,3,0.154947840730414,1
100,1010,3,0.199999359338476,1
100,1011,3,0.184676313773026,1
100,1012,3,0.126065229329975,1
101,1010,3,0.139133158106125,1
101,1011,3,0.136155071274066,1
101,1012,3,0.113760241280667,1
74,1018,4,0.144574011433359,1
74,1019,4,0.119300361813596,1
75,1017,4,0.171686088760451,1
75,1018,4,0.243423468128832,1
75,1019,4,0.162226014739549,1
76,1017,4,0.128699726088934,1
76,1018,4,0.152146925074352,1
77,1004,4,0.135578452348302,1
77,1005,4,0.158242218859587,1
77,1006,4,0.144915481670532,1
78,1003,4,0.129297555150829,1
78,1004,4,0.168852009449004,1
78,1005,4,0.177840855720292,1
78,1006,4,0.14917555105606,1
79,1003,4,0.147454314944872,1
79,1004,4,0.194162379337761,2
79,1005,4,0.200042274239123,2
79,1006,4,0.15930373847669,1
80,1002,4,0.12342240632657,1
80,1003,4,0.208323625269914,2
80,1004,4,0.305059864637641,2
80,1005,4,0.304652008205367,2
80,1006,4,0.207867271702386,2
80,1007,4,0.124197277018934,1
81,1002,4,0.176322429022947,2
81,1003,4,0.364270485788196,2
81,1004,4,0.566222025585195,2
81,1005,4,0.526995545235461,2
81,1006,4,0.304022511150101,2
81,1007,4,0.151545739605573,2
82,1001,4,0.129022318009495,1
82,1002,4,0.227396118853642,2
82,1003,4,0.458405238953087,2
82,1004,4,0.674744576258459,2
82,1005,4,0.601934430365698,2
82,1006,4,0.339844817646532,2
82,1007,4,0.165986803880035,2
83,1001,4,0.152358661352819,1
83,1002,4,0.230070433197422,2
83,1003,4,0.362857450267,2
83,1004,4,0.45948621395325,2
83,1005,4,0.410705538867474,2
83,1006,4,0.264875925061068,2
83,1007,4,0.151493261889524,1
84,1000,4,0.132689810815478,1
84,1001,4,0.176112565266215,2
84,1002,4,0.274616571143719,2
84,1003,4,0.372939060181577,2
84,1004,4,0.400387590800817,2
84,1005,4,0.339308781801896,2
84,1006,4,0.223115557720824,2
84,1007,4,0.137121598687925,1
85,1000,4,0.159798861487942,1
85,1001,4,0.238542852106396,2
85,1002,4,0.407284170789434,2
85,1003,4,0.576029328730871,2
85,1004,4,0.589720925013489,2
85,1005,4,0.417097221045844,2
85,1006,4,0.21957281725912,2
85,1007,4,0.130067385344434,1
86,999,4,0.157850661610214,1
86,1000,4,0.232482547390816,2
86,1001,4,0.357078848192331,2
86,1002,4,0.532329382179001,2
86,1003,4,0.694820788599692,2
86,1004,4,0.682963415683149,2
86,1005,4,0.437877454452028,2
86,1006,4,0.210626049730974,2
86,1007,4,0.132145307404003,1
86,1008,4,0.119590025616097,1
87,998,4,0.122452793373751,1
87,999,4,0.186443032141706,2
87,1000,4,0.327337314605038,2
87,1001,4,0.462432267709086,2
87,1002,4,0.520300490982265,2
87,1003,4,0.572097645484104,2
87,1004,4,0.60681005299684,2
87,1005,4,0.457599559978591,2
87,1006,4,0.238584283121895,2
87,1007,4,0.140532921099047,1
87,1008,4,0.118086826406824,1
88,998,4,0.124918668961617,1
88,999,4,0.194790804698197,2
88,1000,4,0.350735686702948,2
88,1001,4,0.467075320785349,2
88,1002,4,0.468923393746145,2
88,1003,4,0.522075170512536,2
88,1004,4,0.658024676586054,2
88,1005,4,0.576992723498306,2
88,1006,4,0.291033499154751,2
88,1007,4,0.140165282665046,2
89,998,4,0.137038430458406,1
89,999,4,0.18213633814266,2
89,1000,4,0.277743753102615,2
89,1001,4,0.339946852415798,2
89,1002,4,0.421711821213226,2
89,1003,4,0.594260671418931,2
89,1004,4,0.707985770530682,2
89,1005,4,0.568756784063808,2
89,1006,4,0.272663542750825,2
89,1007,4,0.127429838377114,2
90,997,4,0.178828051534436,1
90,998,4,0.191364443228862,1
90,999,4,0.266586797529948,2
90,1000,4,0.326096456868546,2
90,1001,4,0.321500275719993,2
90,1002,4,0.471784606957452,2
90,1003,4,0.675316790636242,2
90,1004,4,0.607091049025775,2
90,1005,4,0.389240009613691,2
90,1006,4,0.206225859190699,2
90,1007,4,0.124378958734709,1
91,997,4,0.171490510342491,1
91,998,4,0.235662701694145,2
91,999,4,0.338109119543578,2
91,1000,4,0.352112119723811,2
91,1001,4,0.309877474425593,2
91,1002,4,0.41361173970789,2
91,1003,4,0.504361868617468,2
91,1004,4,0.376363184046322,2
91,1005,4,0.235826211705282,2
91,1006,4,0.170136853780972,1
91,1007,4,0.131854383476812,1
92,997,4,0.148284843107174,1
92,998,4,0.191117658996409,1
92,999,4,0.252970549637654,2
92,1000,4,0.264591089773732,2
92,1001,4,0.270337187697528,2
92,1002,4,0.306228577291432,2
92,1003,4,0.294015001278026,2
92,1004,4,0.221514045232023,2
92,1005,4,0.175875591163356,1
92,1006,4,0.157949151542737,1
92,1007,4,0.145963540329502,1
92,1008,4,0.115237908243891,1
93,999,4,0.157676646634374,1
93,1000,4,0.187575307171292,1
93,1001,4,0.217566722306864,1
93,1002,4,0.212365751968456,2
93,1003,4,0.181357781291157,2
93,1004,4,0.155112905287898,1
93,1005,4,0.156366976668332,1
93,1006,4,0.188148769896898,1
93,1007,4,0.218681426251992,1
93,1008,4,0.147829467019546,1
94,1001,4,0.161917166421912,1
94,1002,4,0.153075236557202,1
94,1003,4,0.137963656402295,1
94,1005,4,0.158022521419529,1
94,1006,4,0.242393698943163,1
94,1007,4,0.307476124287959,1
94,1008,4,0.184932048423836,1
95,1005,4,0.141611493618493,1
95,1006,4,0.187025362847605,1
95,1007,4,0.223045838672572,1
95,1008,4,0.153564471135325,1
96,1006,4,0.141637532269791,1
96,1007,4,0.172026640402057,1
96,1008,4,0.164484122852877,1
96,1009,4,0.126759605141459,1
97,1007,4,0.17793986383493,1
97,1008,4,0.201455969264829,1
97,1009,4,0.158411829287446,1
97,1010,4,0.130180937888902,1
98,1007,4,0.155652580184207,1
98,1008,4,0.188089461598418,1
98,1009,4,0.186619838234849,1
98,1010,4,0.190933468808122,1
98,1011,4,0.142209299126656,1
99,1008,4,0.139546855864064,1
99,1009,4,0.186261244434135,1
99,1010,4,0.234238101290283,1
99,1011,4,0.185677335628158,1
100,1009,4,0.165101289529169,1
100,1010,4,0.213764019299363,1
100,1011,4,0.179937373451684,1
100,1012,4,0.115446288115474,1
101,1010,4,0.146013803994694,1
101,1011,4,0.133147259631569,1
75,1017,5,0.134195400728602,1
75,1018,5,0.174202180906044,1
75,1019,5,0.120528206112872,1
76,1018,5,0.118058832795727,1
77,1004,5,0.125734487817962,1
77,1005,5,0.13456726705759,1
78,1003,5,0.121712711544316,1
78,1004,5,0.172452550770306,1
78,1005,5,0.174120838090795,1
78,1006,5,0.138963135487947,1
79,1003,5,0.145666056687804,1
79,1004,5,0.210282518542205,2
79,1005,5,0.226520273309975,2
79,1006,5,0.180223221549517,1
79,1007,5,0.132444322038314,1
80,1002,5,0.129058402327712,1
80,1003,5,0.200472695147149,2
80,1004,5,0.295008403500688,2
80,1005,5,0.314226011630456,2
80,1006,5,0.22862524683134,2
80,1007,5,0.142452055670848,1
81,1002,5,0.175737472075872,2
81,1003,5,0.358872017402628,2
81,1004,5,0.551879357028325,2
81,1005,5,0.52884729257853,2
81,1006,5,0.32801243524019,2
81,1007,5,0.165507991828551,2
82,1001,5,0.120893288966895,1
82,1002,5,0.225066489831524,2
82,1003,5,0.489308348413218,2
82,1004,5,0.721332445954312,2
82,1005,5,0.641678433326308,2
82,1006,5,0.371856978155986,2
82,1007,5,0.177721991809142,2
83,1001,5,0.142863021195815,1
83,1002,5,0.221265223601707,2
83,1003,5,0.392416842840735,2
83,1004,5,0.514979467269215,2
83,1005,5,0.450672972534746,2
83,1006,5,0.282352818142856,2
83,1007,5,0.153700929684665,2
84,1000,5,0.144436316313061,1
84,1001,5,0.181568975833776,2
84,1002,5,0.270829978889261,2
84,1003,5,0.381647746581435,2
84,1004,5,0.430305683167061,2
84,1005,5,0.363438120434757,2
84,1006,5,0.23196193924098,2
84,1007,5,0.136762298275236,1
85,1000,5,0.170463273183067,1
85,1001,5,0.260604926743652,2
85,1002,5,0.419531640623933,2
85,1003,5,0.571520908789678,2
85,1004,5,0.593354323791653,2
85,1005,5,0.418290594457581,2
85,1006,5,0.221392295988639,2
85,1007,5,0.130952723042306,1
86,999,5,0.148501113479151,1
86,1000,5,0.236821710210138,2
86,1001,5,0.381408841072509,2
86,1002,5,0.537747588592419,2
86,1003,5,0.665286574966019,2
86,1004,5,0.653184855628339,2
86,1005,5,0.410198427006371,2
86,1006,5,0.201236330709102,2
86,1007,5,0.130393851853994,1
86,1008,5,0.11506037198504,1
87,999,5,0.176822769185952,2
87,1000,5,0.328386586281232,2
87,1001,5,0.484611263074559,2
87,1002,5,0.523280650542786,2
87,1003,5,0.551054929282745,2
87,1004,5,0.573425369386121,2
87,1005,5,0.412678635040473,2
87,1006,5,0.214507445758816,2
87,1007,5,0.131634992235277,1
88,998,5,0.118985283533708,1
88,999,5,0.190819433412138,2
88,1000,5,0.355766292894056,2
88,1001,5,0.487869215356393,2
88,1002,5,0.479160552510267,2
88,1003,5,0.532154801913581,2
88,1004,5,0.658804540669712,2
88,1005,5,0.545872919699013,2
88,1006,5,0.260160279381185,2
88,1007,5,0.127027128435394,1
89,999,5,0.16956712432197,1
89,1000,5,0.254992778896685,2
89,1001,5,0.3250611996632,2
89,1002,5,0.404808343749579,2
89,1003,5,0.60088661902092,2
89,1004,5,0.734872497521912,2
89,1005,5,0.57292866827479,2
89,1006,5,0.255667663994511,2
89,1007,5,0.117607413735161,1
90,998,5,0.179453167595453,1
90,999,5,0.224372196458103,1
90,1000,5,0.248225815098112,2
90,1001,5,0.26517943845829,2
90,1002,5,0.421520329367858,2
90,1003,5,0.654740909413381,2
90,1004,5,0.612961911070716,2
90,1005,5,0.387951643998712,2
90,1006,5,0.191571951612343,2
90,1007,5,0.115004208109852,1
91,997,5,0.171060489847917,1
91,998,5,0.237008161556747,1
91,999,5,0.315045610860871,2
91,1000,5,0.294218364204582,2
91,1001,5,0.276389319267924,2
91,1002,5,0.390092489854701,2
91,1003,5,0.508668574393381,2
91,1004,5,0.394727817306699,2
91,1005,5,0.239095681762317,2
91,1006,5,0.158163066541461,1
91,1007,5,0.121047471699955,1
92,997,5,0.146840245584405,1
92,998,5,0.203617848603956,1
92,999,5,0.276494934204533,1
92,1000,5,0.27824815628448,1
92,1001,5,0.284295294463582,2
92,1002,5,0.307459330476674,2
92,1003,5,0.30064379888165,2
92,1004,5,0.236001357260283,2
92,1005,5,0.178674905165607,1
92,1006,5,0.148288965010365,1
92,1007,5,0.133191870400957,1
93,999,5,0.177622736380313,1
93,1000,5,0.21323380122666,1
93,1001,5,0.236449608343825,1
93,1002,5,0.213679767598148,2
93,1003,5,0.179543083969339,2
93,1004,5,0.15996986158602,1
93,1005,5,0.152888137482948,1
93,1006,5,0.163977270082831,1
93,1007,5,0.183095422577044,1
93,1008,5,0.131715887529608,1
94,1001,5,0.158275830035889,1
94,1002,5,0.142455942036714,1
94,1003,5,0.131811657006025,1
94,1005,5,0.147215715634468,1
94,1006,5,0.20335835713281,1
94,1007,5,0.253702882289091,1
94,1008,5,0.161962554464473,1
95,1006,5,0.173473864166001,1
95,1007,5,0.203169903718937,1
95,1008,5,0.142382207077068,1
96,1006,5,0.138776248397286,1
96,1007,5,0.161759014884923,1
96,1008,5,0.147661057832045,1
96,1009,5,0.116886539974594,1
97,1007,5,0.168016252358082,1
97,1008,5,0.180954977134508,1
97,1009,5,0.142159035461463,1
97,1010,5,0.122758791689753,1
98,1008,5,0.174417379583191,1
98,1009,5,0.167556012424688,1
98,1010,5,0.180280268689675,1
98,1011,5,0.140542801889838,1
99,1008,5,0.132489133014428,1
99,1009,5,0.178359379364801,1
99,1010,5,0.229559717615243,1
99,1011,5,0.180508940101822,1
100,1009,5,0.176605144474356,1
100,1010,5,0.228564595970107,1
100,1011,5,0.17824700450696,1
101,1010,5,0.1604738054701,1
101,1011,5,0.133824099689194,1
78,1004,6,0.171194451701611,1
78,1005,6,0.156403826482856,1
78,1006,6,0.121764635747651,1
79,1003,6,0.154612965538346,1
79,1004,6,0.227730935161379,2
79,1005,6,0.242237631911501,2
79,1006,6,0.194506475816111,1
79,1007,6,0.154179718182417,1
80,1002,6,0.130797327292021,1
80,1003,6,0.194604965748633,2
80,1004,6,0.295580099696355,2
80,1005,6,0.340448664687085,2
80,1006,6,0.268292417516477,2
80,1007,6,0.169823259386233,1
81,1002,6,0.161774583902117,2
81,1003,6,0.325189261306899,2
81,1004,6,0.51415659406998,2
81,1005,6,0.533931789709638,2
81,1006,6,0.373935571496931,2
81,1007,6,0.188081559321159,2
82,1002,6,0.206874010802119,2
82,1003,6,0.477202295188754,2
82,1004,6,0.72574033856512,2
82,1005,6,0.662408120422509,2
82,1006,6,0.40889218410841,2
82,1007,6,0.189295247827192,2
83,1001,6,0.133027547786048,1
83,1002,6,0.210007670037457,2
83,1003,6,0.419631649772202,2
83,1004,6,0.589197090002298,2
83,1005,6,0.508250778285984,2
83,1006,6,0.308105032499911,2
83,1007,6,0.15912846337616,2
83,1008,6,0.116521186252647,1
83,1009,6,0.122976746153605,1
84,1000,6,0.155958696268872,1
84,1001,6,0.186778979028604,1
84,1002,6,0.256448587996132,2
84,1003,6,0.382509318563196,2
84,1004,6,0.470201042412829,2
84,1005,6,0.394418415476347,2
84,1006,6,0.244440235654152,2
84,1007,6,0.148568960005668,1
84,1008,6,0.124809132328544,1
84,1009,6,0.119406812907709,1
85,999,6,0.127920274195595,1
85,1000,6,0.181405972227888,1
85,1001,6,0.275944012400946,2
85,1002,6,0.398399797098727,2
85,1003,6,0.518233274094126,2
85,1004,6,0.551652581691646,2
85,1005,6,0.396991283894174,2
85,1006,6,0.224725879305587,2
85,1007,6,0.147494615381209,1
85,1008,6,0.124426066199744,1
86,999,6,0.140142824181091,1
86,1000,6,0.235077838962,2
86,1001,6,0.391007010627161,2
86,1002,6,0.51520732607759,2
86,1003,6,0.59185767252002,2
86,1004,6,0.569933669862783,2
86,1005,6,0.361874223256786,2
86,1006,6,0.195322589094113,2
86,1007,6,0.136970501493825,1
86,1008,6,0.116388884937096,1
87,999,6,0.163046638557328,2
87,1000,6,0.307248924984094,2
87,1001,6,0.479934716590656,2
87,1002,6,0.517531372865101,2
87,1003,6,0.517069154418176,2
87,1004,6,0.504300817342783,2
87,1005,6,0.34841691595152,2
87,1006,6,0.190717787279458,2
87,1007,6,0.125369075211684,1
88,999,6,0.177100420584869,2
88,1000,6,0.325654047110668,2
88,1001,6,0.471676919292382,2
88,1002,6,0.489305333535456,2
88,1003,6,0.538951325646463,2
88,1004,6,0.614012737293256,2
88,1005,6,0.469061983908278,2
88,1006,6,0.221055948688288,2
88,1007,6,0.116409812428438,1
89,999,6,0.15419714794448,1
89,1000,6,0.224497879174817,2
89,1001,6,0.305645457535494,2
89,1002,6,0.403467052897632,2
89,1003,6,0.592555993581702,2
89,1004,6,0.701116324441925,2
89,1005,6,0.519366444165547,2
89,1006,6,0.2267072428387,2
90,998,6,0.154391160039227,1
90,999,6,0.175450340299617,1
90,1000,6,0.184313692284052,1
90,1001,6,0.21994816954052,2
90,1002,6,0.367050391514853,2
90,1003,6,0.588473754876683,2
90,1004,6,0.574158078897278,2
90,1005,6,0.365147721002081,2
90,1006,6,0.17665159243488,2
91,997,6,0.156238396842519,1
91,998,6,0.205599636104254,1
91,999,6,0.256417732606534,1
91,1000,6,0.23205867442043,1
91,1001,6,0.234992150483101,2
91,1002,6,0.344507255444657,2
91,1003,6,0.491078505626845,2
91,1004,6,0.423522302416924,2
91,1005,6,0.257564634504014,2
91,1006,6,0.153112557446376,1
92,997,6,0.137448088751218,1
92,998,6,0.191802248232033,1
92,999,6,0.266788959216147,1
92,1000,6,0.270782329688378,1
92,1001,6,0.273525114732586,2
92,1002,6,0.291068311571412,2
92,1003,6,0.316252998743455,2
92,1004,6,0.276603658233834,2
92,1005,6,0.195942747094435,1
92,1006,6,0.142260528494882,1
92,1007,6,0.117903283946181,1
93,999,6,0.185988633533977,1
93,1000,6,0.22263810000896,1
93,1001,6,0.237961310450537,1
93,1002,6,0.208636489498945,2
93,1003,6,0.184030823733382,2
93,1004,6,0.172924332032633,1
93,1005,6,0.152397136374886,1
93,1006,6,0.143235535252448,1
93,1007,6,0.144119082866648,1
94,1000,6,0.149122178298175,1
94,1001,6,0.151675120258292,1
94,1002,6,0.134269924738287,1
94,1003,6,0.126526741164924,1
94,1005,6,0.132626050861553,1
94,1006,6,0.157977109823235,1
94,1007,6,0.180539100656311,1
94,1008,6,0.131183749827704,1
95,1005,6,0.123196149172006,1
95,1006,6,0.150692458537658,1
95,1007,6,0.165103421141962,1
95,1008,6,0.12549799656662,1
96,1006,6,0.13099926521776,1
96,1007,6,0.142610972704145,1
96,1008,6,0.127203416346422,1
97,1007,6,0.146711430221267,1
97,1008,6,0.14936603009093,1
97,1009,6,0.123929789055598,1
98,1007,6,0.139683585281329,1
98,1008,6,0.152471589723375,1
98,1009,6,0.142905512129277,1
98,1010,6,0.156815051098881,1
98,1011,6,0.128143775563455,1
99,1008,6,0.123879796258329,1
99,1009,6,0.158774686313746,1
99,1010,6,0.201503194498526,1
99,1011,6,0.161836541995504,1
100,1009,6,0.173265743385476,1
100,1010,6,0.221961990117042,1
100,1011,6,0.167678550718111,1
101,1010,6,0.16835116288075,1
101,1011,6,0.133475716431527,1
78,1004,7,0.148836247762278,1
78,1005,7,0.126404226425234,1
79,1003,7,0.165354362608205,1
79,1004,7,0.235103418315514,2
79,1005,7,0.24187068831261,2
79,1006,7,0.201855275692199,2
79,1007,7,0.163651792830037,1
80,1002,7,0.132913912803517,1
80,1003,7,0.202336242910209,2
80,1004,7,0.324637727106267,2
80,1005,7,0.396250189254241,2
80,1006,7,0.32754774365135,2
80,1007,7,0.196395862023742,2
80,1008,7,0.1139325486109,1
81,1002,7,0.146421848856829,2
81,1003,7,0.288560051041881,2
81,1004,7,0.488182244461552,2
81,1005,7,0.569386893516119,2
81,1006,7,0.439166785770041,2
81,1007,7,0.21189258103591,2
82,1002,7,0.177360548006794,2
82,1003,7,0.423553817311032,2
82,1004,7,0.683971421219972,2
82,1005,7,0.664916404505772,2
82,1006,7,0.438058959514808,2
82,1007,7,0.195409113730516,2
83,1001,7,0.116143796573384,1
83,1002,7,0.192189389156559,2
83,1003,7,0.4376000856979,2
83,1004,7,0.667778842511171,2
83,1005,7,0.574385372416073,2
83,1006,7,0.336229319705081,2
83,1007,7,0.171610151526814,2
83,1008,7,0.129686368390363,1
83,1009,7,0.127419015437022,1
84,1000,7,0.157623968711599,1
84,1001,7,0.184256327168505,2
84,1002,7,0.236415549646604,2
84,1003,7,0.394783380561708,2
84,1004,7,0.537320842066665,2
84,1005,7,0.440839524745975,2
84,1006,7,0.272697672109243,2
84,1007,7,0.191379729601266,2
84,1008,7,0.165063156036223,1
84,1009,7,0.130702511741771,1
85,999,7,0.127597022770524,1
85,1000,7,0.194643464324433,2
85,1001,7,0.291590874681047,2
85,1002,7,0.361549935467484,2
85,1003,7,0.446497649478817,2
85,1004,7,0.494674124218051,2
85,1005,7,0.371141509977031,2
85,1006,7,0.248496400377274,2
85,1007,7,0.201162984386042,1
85,1008,7,0.163101200778705,1
86,999,7,0.133605309067838,1
86,1000,7,0.23817970065844,2
86,1001,7,0.407095128532247,2
86,1002,7,0.495846581915312,2
86,1003,7,0.503204720846344,2
86,1004,7,0.460161358142134,2
86,1005,7,0.307166793118805,2
86,1006,7,0.199945162199953,2
86,1007,7,0.15822045521074,1
86,1008,7,0.125447414926038,1
87,999,7,0.147935199724817,1
87,1000,7,0.281526529652406,2
87,1001,7,0.471743011065826,2
87,1002,7,0.537463671900651,2
87,1003,7,0.491741448982286,2
87,1004,7,0.421036253057157,2
87,1005,7,0.280224620641229,2
87,1006,7,0.167740426373435,2
87,1007,7,0.120154549700213,1
88,999,7,0.158771471229257,1
88,1000,7,0.282643117896135,2
88,1001,7,0.444596392189997,2
88,1002,7,0.52948291360425,2
88,1003,7,0.553280709898192,2
88,1004,7,0.529140065473723,2
88,1005,7,0.360542660096369,2
88,1006,7,0.176007197643798,2
89,999,7,0.139418334922582,1
89,1000,7,0.199682585189846,2
89,1001,7,0.298396113294961,2
89,1002,7,0.43535734639504,2
89,1003,7,0.580984798515248,2
89,1004,7,0.606359988275894,2
89,1005,7,0.411809172558319,2
89,1006,7,0.185081202435004,2
90,999,7,0.139326840448618,1
90,1000,7,0.152196964979086,1
90,1001,7,0.196140492455787,2
90,1002,7,0.324863206987658,2
90,1003,7,0.50478503497588,2
90,1004,7,0.510653211895313,2
90,1005,7,0.326176186253118,2
90,1006,7,0.159720321566862,2
91,998,7,0.162060679314142,1
91,999,7,0.192720678924092,1
91,1000,7,0.189308932545784,1
91,1001,7,0.196481161866055,2
91,1002,7,0.289490988765906,2
91,1003,7,0.46578471756578,2
91,1004,7,0.47380933291213,2
91,1005,7,0.292756007167495,2
91,1006,7,0.153053343362827,2
92,998,7,0.168937851027164,1
92,999,7,0.232218533603027,1
92,1000,7,0.252066392507501,1
92,1001,7,0.245475021784847,1
92,1002,7,0.268410468823856,2
92,1003,7,0.358594954847024,2
92,1004,7,0.366316103903617,2
92,1005,7,0.240568002028259,2
92,1006,7,0.143134477963081,1
93,999,7,0.186291216558764,1
93,1000,7,0.221661067630397,1
93,1001,7,0.223427102940834,1
93,1002,7,0.201787982678397,1
93,1003,7,0.20904050667282,2
93,1004,7,0.209502607351082,2
93,1005,7,0.163511883658882,1
93,1006,7,0.128262886788796,1
94,1000,7,0.146872608412884,1
94,1001,7,0.144620447617017,1
94,1002,7,0.130690852644175,1
94,1003,7,0.128544742528968,1
94,1004,7,0.13032766586562,1
94,1005,7,0.12147264012563,1
94,1006,7,0.121782477700033,1
94,1007,7,0.125403616760422,1
95,1006,7,0.12387689914923,1
95,1007,7,0.129735843005517,1
96,1006,7,0.122323742473287,1
96,1007,7,0.127213768211864,1
96,1008,7,0.117331929279635,1
97,1006,7,0.114445760888726,1
97,1007,7,0.125799260582386,1
97,1008,7,0.122538470075784,1
98,1007,7,0.123678564944565,1
98,1008,7,0.125733863644051,1
98,1009,7,0.122997155462831,1
98,1010,7,0.136455369586799,1
99,1008,7,0.114511310926322,1
99,1009,7,0.142578350784608,1
99,1010,7,0.179482020917787,1
99,1011,7,0.145387109833599,1
100,1009,7,0.172230874816717,1
100,1010,7,0.220434389240881,1
100,1011,7,0.165539059201741,1
101,1009,7,0.152092245084312,1
101,1010,7,0.192216004874304,1
101,1011,7,0.151189595393041,1
102,1010,7,0.12823737809648,1
102,1011,7,0.118968159970168,1
78,1004,8,0.122182408301315,1
79,1003,8,0.161527163718886,1
79,1004,8,0.215447569438523,2
79,1005,8,0.206795364889242,2
79,1006,8,0.181299450472577,2
79,1007,8,0.147954784653405,1
80,1002,8,0.126698483205576,1
80,1003,8,0.201368349379863,2
80,1004,8,0.327106228935308,2
80,1005,8,0.398174340771068,2
80,1006,8,0.337205221504482,2
80,1007,8,0.197686335697783,2
80,1008,8,0.12009455834349,1
81,1002,8,0.130970152804369,1
81,1003,8,0.249961395432404,2
81,1004,8,0.444617543441798,2
81,1005,8,0.565145667116606,2
81,1006,8,0.454604043384468,2
81,1007,8,0.217362817644459,2
81,1008,8,0.122430040468139,1
81,1009,8,0.113840583062285,1
82,1002,8,0.152908181709321,2
82,1003,8,0.351934854332883,2
82,1004,8,0.58772752552306,2
82,1005,8,0.613658913123377,2
82,1006,8,0.419553168735454,2
82,1007,8,0.188093713047138,2
82,1009,8,0.114241868003187,1
83,1002,8,0.186633723160168,2
83,1003,8,0.442967274726685,2
83,1004,8,0.6796577906467,2
83,1005,8,0.575625099573404,2
83,1006,8,0.325667731829261,2
83,1007,8,0.169762066789152,2
83,1008,8,0.131353725338418,1
83,1009,8,0.118847941719398,1
84,1001,8,0.172098479286235,1
84,1002,8,0.231945899149136,2
84,1003,8,0.426646752142848,2
84,1004,8,0.575849707966692,2
84,1005,8,0.439589245516476,2
84,1006,8,0.266267762222998,2
84,1007,8,0.211277569526143,2
84,1008,8,0.182371463277517,1
84,1009,8,0.123875297495419,1
85,1000,8,0.19461438724164,1
85,1001,8,0.291675503241983,2
85,1002,8,0.323818269198247,2
85,1003,8,0.387355805227214,2
85,1004,8,0.42972776878601,2
85,1005,8,0.32556948921093,2
85,1006,8,0.248578485135098,2
85,1007,8,0.231496658808827,1
85,1008,8,0.181930596289119,1
86,999,8,0.12882785839383,1
86,1000,8,0.237416865923393,2
86,1001,8,0.411390528516551,2
86,1002,8,0.465100198991354,2
86,1003,8,0.417925652925953,2
86,1004,8,0.360426728624917,2
86,1005,8,0.258728707072498,2
86,1006,8,0.196161643707587,1
86,1007,8,0.16492657971822,1
86,1008,8,0.124165703240494,1
87,999,8,0.137421390595409,1
87,1000,8,0.255325616690891,2
87,1001,8,0.451299266282389,2
87,1002,8,0.545223825938294,2
87,1003,8,0.463819723876767,2
87,1004,8,0.352051092002858,2
87,1005,8,0.229728951183382,2
87,1006,8,0.149718429259992,1
88,999,8,0.144878431649282,1
88,1000,8,0.244768127164529,2
88,1001,8,0.415402765528528,2
88,1002,8,0.564159990518209,2
88,1003,8,0.550711798507428,2
88,1004,8,0.438279186913848,2
88,1005,8,0.26781446517623,2
88,1006,8,0.142491131313095,1
89,999,8,0.131138456000073,1
89,1000,8,0.186216727879677,2
89,1001,8,0.300056109701603,2
89,1002,8,0.469018503718051,2
89,1003,8,0.548195035080458,2
89,1004,8,0.482181130275789,2
89,1005,8,0.299087462451817,2
89,1006,8,0.147515625310615,2
90,1000,8,0.144227783342216,1
90,1001,8,0.192158086246043,2
90,1002,8,0.299626795819005,2
90,1003,8,0.418817444346534,2
90,1004,8,0.425324963781425,2
90,1005,8,0.275996654993123,2
90,1006,8,0.142731249839246,1
91,999,8,0.149196113464548,1
91,1000,8,0.164972085529444,1
91,1001,8,0.174838072799688,1
91,1002,8,0.251500443422568,2
91,1003,8,0.428536562317665,2
91,1004,8,0.485645978544057,2
91,1005,8,0.301385058397711,2
91,1006,8,0.14680913110375,2
92,999,8,0.187102736858925,1
92,1000,8,0.21831401157845,1
92,1001,8,0.208057562307395,1
92,1002,8,0.253435853623539,2
92,1003,8,0.403998142458439,2
92,1004,8,0.441338157263373,2
92,1005,8,0.268271596016932,2
92,1006,8,0.139153567415352,1
93,1000,8,0.199360864757389,1
93,1001,8,0.189894066145853,1
93,1002,8,0.198016299936622,1
93,1003,8,0.250193800111155,2
93,1004,8,0.250893958363973,2
93,1005,8,0.172530643170468,1
93,1006,8,0.118972517410684,1
94,1003,8,0.135073236562666,1
94,1004,8,0.134039039275284,1
94,1005,8,0.115861281328702,1
96,1007,8,0.115955331382645,1
99,1009,8,0.12579373723211,1
99,1010,8,0.15124197889416,1
99,1011,8,0.120426418657797,1
100,1009,8,0.157404436147668,1
100,1010,8,0.196368857669411,1
100,1011,8,0.148308043533704,1
101,1009,8,0.146685026487114,1
101,1010,8,0.185793855942922,1
101,1011,8,0.148283241453363,1
102,1010,8,0.129667760941674,1
102,1011,8,0.120359137420861,1
79,1004,9,0.167497705159841,1
79,1005,9,0.155058201744126,2
79,1006,9,0.146162581146142,1
80,1003,9,0.181930961371973,1
80,1004,9,0.281735592582232,2
80,1005,9,0.332896019032923,2
80,1006,9,0.289347593642339,2
80,1007,9,0.177119899521661,1
81,1002,9,0.120438254408387,1
81,1003,9,0.219257173689652,2
81,1004,9,0.386862802051888,2
81,1005,9,0.505691618140482,2
81,1006,9,0.412462458883427,2
81,1007,9,0.212063840225046,2
81,1008,9,0.156029534119419,1
81,1009,9,0.149568651074912,1
82,1002,9,0.13720191691581,2
82,1003,9,0.29308743173775,2
82,1004,9,0.489043557352255,2
82,1005,9,0.541556227140514,2
82,1006,9,0.379417255219484,2
82,1007,9,0.183282627643094,2
82,1008,9,0.131689872432043,1
82,1009,9,0.128803221189616,1
83,1002,9,0.177960025829965,2
83,1003,9,0.419169290002882,2
83,1004,9,0.620416149230419,2
83,1005,9,0.526383053975074,2
83,1006,9,0.301976586836158,2
83,1007,9,0.163446887134,2
83,1008,9,0.125798883722666,1
84,1001,9,0.148898547384787,1
84,1002,9,0.220770359681512,2
84,1003,9,0.433269213792425,2
84,1004,9,0.55299627502431,2
84,1005,9,0.401842834610684,2
84,1006,9,0.245521540406569,2
84,1007,9,0.203356237296883,1
84,1008,9,0.170206973242677,1
85,1000,9,0.179440130604505,1
85,1001,9,0.263276273317135,2
85,1002,9,0.278111332652285,2
85,1003,9,0.331441034314114,2
85,1004,9,0.357310310721782,2
85,1005,9,0.27889397607638,2
85,1006,9,0.233907642423061,2
85,1007,9,0.229312003010355,1
85,1008,9,0.177173154510884,1
86,999,9,0.120270799147053,1
86,1000,9,0.223082488280369,2
86,1001,9,0.384233286907356,2
86,1002,9,0.411243129258456,2
86,1003,9,0.337768650340036,2
86,1004,9,0.2783592121333,2
86,1005,9,0.22389268957151,2
86,1006,9,0.192198775318967,1
86,1007,9,0.165356305791137,1
86,1008,9,0.122332045163999,1
87,999,9,0.125715974584204,1
87,1000,9,0.223567765831429,2
87,1001,9,0.409870606157191,2
87,1002,9,0.521896115037937,2
87,1003,9,0.432772889540814,2
87,1004,9,0.302172153477252,2
87,1005,9,0.201580097435196,2
87,1006,9,0.144872272348229,1
88,999,9,0.133564125366531,1
88,1000,9,0.216590867614927,2
88,1001,9,0.388092047798249,2
88,1002,9,0.56719291043957,2
88,1003,9,0.524855500206378,2
88,1004,9,0.35877716652178,2
88,1005,9,0.206927171576411,2
88,1006,9,0.125100150470665,1
89,1000,9,0.18529574160764,2
89,1001,9,0.308474095934729,2
89,1002,9,0.472773722400796,2
89,1003,9,0.485945440699286,2
89,1004,9,0.361953081153255,2
89,1005,9,0.214375544856717,2
89,1006,9,0.123158957828361,1
90,1000,9,0.149864297525473,1
90,1001,9,0.200502255081459,2
90,1002,9,0.280260563637051,2
90,1003,9,0.339793823815631,2
90,1004,9,0.332324087299931,2
90,1005,9,0.223791761827672,2
90,1006,9,0.127434549123617,1
91,1001,9,0.159834592500171,1
91,1002,9,0.218707947754806,2
91,1003,9,0.370706448983699,2
91,1004,9,0.440092494565447,2
91,1005,9,0.276610371047601,2
91,1006,9,0.137604603303797,1
92,1000,9,0.178131249688502,1
92,1001,9,0.16988254413098,1
92,1002,9,0.233912094078507,2
92,1003,9,0.423344283306556,2
92,1004,9,0.469715411555782,2
92,1005,9,0.269035043149025,2
92,1006,9,0.133450231292943,1
93,1002,9,0.192522403603759,1
93,1003,9,0.290087086628461,2
93,1004,9,0.283822288407164,2
93,1005,9,0.174796759552852,1
93,1006,9,0.114176965693235,1
94,1003,9,0.143468870303633,1
94,1004,9,0.136892962606377,1
96,1007,9,0.115326328955762,1
99,1010,9,0.122925587446577,1
100,1009,9,0.139534984782876,1
100,1010,9,0.165866703397927,1
100,1011,9,0.127036844350058,1
101,1009,9,0.138465621772844,1
101,1010,9,0.172725079232401,1
101,1011,9,0.144939247386643,1
102,1010,9,0.138315655157905,1
102,1011,9,0.135488971718468,1
79,1004,10,0.133012591165899,1
79,1005,10,0.133184533413278,1
79,1006,10,0.126348215649307,1
80,1003,10,0.154387650533082,1
80,1004,10,0.22100910031431,2
80,1005,10,0.25090750176017,2
80,1006,10,0.222967216313428,2
80,1007,10,0.153500169445552,1
80,1009,10,0.122009735888229,1
81,1003,10,0.193057662175221,2
81,1004,10,0.318545671959253,2
81,1005,10,0.399637263097736,2
81,1006,10,0.324361441823835,2
81,1007,10,0.195517755321754,2
81,1008,10,0.188209314766334,1
81,1009,10,0.184040386548784,1
82,1002,10,0.125460133941597,1
82,1003,10,0.247470022929088,2
82,1004,10,0.39745463292026,2
82,1005,10,0.443363872474816,2
82,1006,10,0.311900127651809,2
82,1007,10,0.173576864638301,2
82,1008,10,0.156902965405502,1
82,1009,10,0.151279205568404,1
83,1002,10,0.163688218677375,2
83,1003,10,0.364038622845293,2
83,1004,10,0.504466117437591,2
83,1005,10,0.427594177479636,2
83,1006,10,0.255064829764456,2
83,1007,10,0.150763190396408,1
83,1008,10,0.120148449283491,1
84,1001,10,0.126018451617195,1
84,1002,10,0.204482082157492,2
84,1003,10,0.399288809178871,2
84,1004,10,0.473280881369365,2
84,1005,10,0.340171837668806,2
84,1006,10,0.216208614089899,2
84,1007,10,0.174961894771533,1
84,1008,10,0.140769918755639,1
85,1000,10,0.152808066569255,1
85,1001,10,0.217157381989441,2
85,1002,10,0.237404382445158,2
85,1003,10,0.285360582677888,2
85,1004,10,0.293804501570516,2
85,1005,10,0.242200652551449,2
85,1006,10,0.208793192481385,1
85,1007,10,0.196478747608472,1
85,1008,10,0.152919652377057,1
86,1000,10,0.194228871524659,2
86,1001,10,0.326334867749089,2
86,1002,10,0.344522848015584,2
86,1003,10,0.276393629600974,2
86,1004,10,0.222615865285463,2
86,1005,10,0.200043404818283,1
86,1006,10,0.182577864635569,1
86,1007,10,0.153546593852344,1
86,1008,10,0.113837438638994,1
87,999,10,0.114000265591888,1
87,1000,10,0.189662591839536,2
87,1001,10,0.347878618948563,2
87,1002,10,0.453613797361963,2
87,1003,10,0.384450782073424,2
87,1004,10,0.258026829397206,2
87,1005,10,0.179617666863356,1
87,1006,10,0.138320177474548,1
88,999,10,0.124917962349641,1
88,1000,10,0.197461162014914,2
88,1001,10,0.355929166954415,2
88,1002,10,0.511850683656508,2
88,1003,10,0.460419742587852,2
88,1004,10,0.289818079449378,2
88,1005,10,0.166925773426849,2
89,1000,10,0.194119158238592,2
89,1001,10,0.318010083635536,2
89,1002,10,0.432922408634836,2
89,1003,10,0.395758293104343,2
89,1004,10,0.264760982846382,2
89,1005,10,0.159783186478952,1
90,1000,10,0.159578492766507,1
90,1001,10,0.211309414172507,2
90,1002,10,0.258963938199151,2
90,1003,10,0.271638060344474,2
90,1004,10,0.248468065237056,2
90,1005,10,0.17747797514026,1
91,1001,10,0.148946632329721,1
91,1002,10,0.190138742319246,2
91,1003,10,0.29699275835783,2
91,1004,10,0.346167086975172,2
91,1005,10,0.227515300740181,2
91,1006,10,0.12417871667771,1
92,1001,10,0.138907713555333,1
92,1002,10,0.202194308118058,2
92,1003,10,0.378597655989069,2
92,1004,10,0.414644523771322,2
92,1005,10,0.237190302570306,2
92,1006,10,0.12223751225854,1
93,1002,10,0.175562762264923,1
93,1003,10,0.286857775685369,2
93,1004,10,0.274224001083849,2
93,1005,10,0.163585830602121,1
94,1003,10,0.14162610870952,1
94,1004,10,0.131467843172465,1
100,1009,10,0.117248996587441,1
100,1010,10,0.127334881504469,1
101,1009,10,0.121826758717166,1
101,1010,10,0.143170232529042,1
101,1011,10,0.124627815695623,1
102,1010,10,0.131010947869089,1
102,1011,10,0.134482626719788,1
103,1011,10,0.116905253415079,1
78,1015,11,0.12235839001382,1
79,1005,11,0.154098634458225,1
79,1014,11,0.116270244786405,1
79,1015,11,0.128737117639305,1
80,1004,11,0.162066296879347,1
80,1005,11,0.187305628710832,1
80,1006,11,0.170157380858861,1
80,1009,11,0.11745625765673,1
80,1015,11,0.119027468268647,1
81,1003,11,0.162365123083798,1
81,1004,11,0.245513744121106,2
81,1005,11,0.285467516623518,2
81,1006,11,0.232199879046873,2
81,1007,11,0.172450277835118,1
81,1008,11,0.193146601069208,1
81,1009,11,0.194662648839569,1
82,1002,11,0.116897786881871,1
82,1003,11,0.208143651199747,2
82,1004,11,0.315401036684562,2
82,1005,11,0.341013012118207,2
82,1006,11,0.247700001573389,2
82,1007,11,0.169135549281051,1
82,1008,11,0.17481933580547,1
82,1009,11,0.167941115951351,1
83,1002,11,0.148256979041606,1
83,1003,11,0.294263116296366,2
83,1004,11,0.388730989900254,2
83,1005,11,0.339623294792204,2
83,1006,11,0.225865785744509,2
83,1007,11,0.150395657954204,1
83,1008,11,0.120105016200728,1
84,1002,11,0.181560696696796,2
84,1003,11,0.328344166008968,2
84,1004,11,0.379404441988994,2
84,1005,11,0.298377882705992,2
84,1006,11,0.212709919108003,2
84,1007,11,0.158453354517874,1
84,1008,11,0.115335679787572,1
85,1001,11,0.174009004968801,1
85,1002,11,0.204310139910113,1
85,1003,11,0.239941425635826,2
85,1004,11,0.246741576643516,2
85,1005,11,0.229817913631101,2
85,1006,11,0.205484175707453,1
85,1007,11,0.16969304257601,1
85,1008,11,0.12708597743609,1
86,1000,11,0.158455839436655,1
86,1001,11,0.258072712068151,2
86,1002,11,0.283097587165062,2
86,1003,11,0.231046334996824,2
86,1004,11,0.189030468543095,1
86,1005,11,0.189328764788564,1
86,1006,11,0.183154177362809,1
86,1007,11,0.146101270780398,1
87,1000,11,0.160999041928376,1
87,1001,11,0.282425858267393,2
87,1002,11,0.375435614506047,2
87,1003,11,0.329981951245846,2
87,1004,11,0.221522830774252,2
87,1005,11,0.166999213964838,1
87,1006,11,0.142119889158019,1
88,1000,11,0.189473714458478,2
88,1001,11,0.318205909367687,2
88,1002,11,0.427786470151909,2
88,1003,11,0.380315123503054,2
88,1004,11,0.236086715986926,2
88,1005,11,0.147406642190256,1
88,1006,11,0.114697350082612,1
89,999,11,0.14163353991213,1
89,1000,11,0.219106830214992,2
89,1001,11,0.32631185575242,2
89,1002,11,0.372086108865917,2
89,1003,11,0.307874488566029,2
89,1004,11,0.20095948013709,2
89,1005,11,0.134999796024676,1
90,1000,11,0.182407359165874,1
90,1001,11,0.226163198725008,2
90,1002,11,0.236386178142155,2
90,1003,11,0.218530470380286,2
90,1004,11,0.190126423717139,1
90,1005,11,0.148765468796062,1
91,1001,11,0.146062842865796,1
91,1002,11,0.170246991034225,1
91,1003,11,0.230165637384258,2
91,1004,11,0.256097095645772,2
91,1005,11,0.185907149396332,1
91,1006,11,0.115346714711256,1
92,1002,11,0.171087882838835,1
92,1003,11,0.296311395983561,2
92,1004,11,0.323582708319338,2
92,1005,11,0.203525989047138,1
92,1006,11,0.11472937138197,1
93,1002,11,0.154469181778192,1
93,1003,11,0.246818785778709,1
93,1004,11,0.239224614894118,1
93,1005,11,0.154053623275384,1
94,1003,11,0.135739241903334,1
94,1004,11,0.128427598040292,1
97,1005,11,0.121563369103288,1
101,1010,11,0.118821844183768,1
102,1010,11,0.123956816963662,1
102,1011,11,0.130224594732123,1
103,1011,11,0.121009032008486,1
77,1014,12,0.116044835566211,1
77,1015,12,0.141982924203429,1
77,1016,12,0.125620723289902,1
78,1014,12,0.172832083839228,1
78,1015,12,0.198205389301273,1
78,1016,12,0.160506368505306,1
78,1017,12,0.116974148082693,1
79,1013,12,0.125732050006647,1
79,1014,12,0.19099234136255,1
79,1015,12,0.203238374419365,1
79,1016,12,0.152534725503388,1
80,1005,12,0.164208473521224,1
80,1014,12,0.156696988014636,1
80,1015,12,0.163971216773574,1
80,1016,12,0.114637959346069,1
81,1004,12,0.186419160433799,1
81,1005,12,0.19632403491643,1
81,1006,12,0.160392709969042,1
81,1008,12,0.164040853383762,1
81,1009,12,0.170566297209099,1
81,1014,12,0.122968502347224,1
81,1015,12,0.115921837975005,1
82,1003,12,0.170499074856494,1
82,1004,12,0.236519751359262,2
82,1005,12,0.240250238622864,2
82,1006,12,0.184886636827542,1
82,1007,12,0.153490300431627,1
82,1008,12,0.165171703412531,1
82,1009,12,0.159581837396525,1
83,1002,12,0.128618595257277,1
83,1003,12,0.221416320795807,1
83,1004,12,0.281315158456793,2
83,1005,12,0.25796521283294,2
83,1006,12,0.194933764077713,1
83,1007,12,0.143343222917518,1
83,1008,12,0.114077957578597,1
84,1002,12,0.149672358159187,1
84,1003,12,0.240465731721668,2
84,1004,12,0.282326320193774,2
84,1005,12,0.258445991621089,2
84,1006,12,0.210639098498789,1
84,1007,12,0.147726066133793,1
85,1002,12,0.165565651365754,1
85,1003,12,0.185439007185678,1
85,1004,12,0.199587757862731,1
85,1005,12,0.217321645720018,1
85,1006,12,0.207334297842977,1
85,1007,12,0.153290352796285,1
86,1001,12,0.191367634759619,1
86,1002,12,0.218809746986747,1
86,1003,12,0.183607951796627,1
86,1004,12,0.156792816375384,1
86,1005,12,0.17034934377888,1
86,1006,12,0.172082215433932,1
86,1007,12,0.133251484897959,1
87,1000,12,0.133908127629951,1
87,1001,12,0.215032976638749,1
87,1002,12,0.284237493603984,2
87,1003,12,0.256215382490476,2
87,1004,12,0.177139213582326,1
87,1005,12,0.144239112687557,1
87,1006,12,0.131533075234673,1
88,1000,12,0.175955909391241,1
88,1001,12,0.259440100455727,2
88,1002,12,0.322527948623468,2
88,1003,12,0.28622973896152,2
88,1004,12,0.182444656501315,1
88,1005,12,0.125707954538281,1
89,999,12,0.161444419456551,1
89,1000,12,0.232136213307878,1
89,1001,12,0.294161811692808,2
89,1002,12,0.290660973321252,2
89,1003,12,0.22837395205911,2
89,1004,12,0.154350470966303,1
89,1005,12,0.117439864258897,1
90,1000,12,0.201110318240133,1
90,1001,12,0.215384963617492,1
90,1002,12,0.200087944926474,1
90,1003,12,0.171837833682196,1
90,1004,12,0.1481301068614,1
90,1005,12,0.129079918662367,1
91,1001,12,0.14016461138367,1
91,1002,12,0.150967907662585,1
91,1003,12,0.1750629520609,1
91,1004,12,0.185651544291051,1
91,1005,12,0.155786589145366,1
92,1002,12,0.141040409819871,1
92,1003,12,0.205504314148755,1
92,1004,12,0.224850360781942,1
92,1005,12,0.169982671047912,1
93,1002,12,0.128358514942818,1
93,1003,12,0.183266846642307,1
93,1004,12,0.184973820968456,1
93,1005,12,0.140345197850882,1
94,1003,12,0.119889464217594,1
94,1004,12,0.118534653523181,1
97,1004,12,0.121891225283066,1
97,1005,12,0.129789215763401,1
98,1005,12,0.115163478449136,1
77,1014,13,0.136969076493008,1
77,1015,13,0.183883624682013,1
77,1016,13,0.163008045766598,1
77,1017,13,0.115818649072845,1
78,1013,13,0.131526739280626,1
78,1014,13,0.244723469287676,3
78,1015,13,0.299203629460594,3
78,1016,13,0.225397961509244,3
78,1017,13,0.14371400577481,1
79,1013,13,0.163494395012488,1
79,1014,13,0.281116624045403,3
79,1015,13,0.303061565970849,3
79,1016,13,0.206892052961227,1
79,1017,13,0.122807229940676,1
80,1013,13,0.131960469488071,1
80,1014,13,0.202285178418111,1
80,1015,13,0.206533258953787,1
80,1016,13,0.140419415662045,1
81,1009,13,0.131744681967611,1
81,1014,13,0.134212276977951,1
81,1015,13,0.126375879508149,1
82,1004,13,0.162752546653114,1
82,1005,13,0.153987802369864,1
82,1008,13,0.139069633689525,1
82,1009,13,0.133276510738759,1
83,1003,13,0.160334049398207,1
83,1004,13,0.190615776063924,1
83,1005,13,0.187276857826561,1
83,1006,13,0.1662649970148,1
83,1007,13,0.135199366800298,1
84,1003,13,0.164258360326696,1
84,1004,13,0.201054283910474,1
84,1005,13,0.223308651220003,1
84,1006,13,0.212099783220867,1
84,1007,13,0.148531238703041,1
85,1004,13,0.164396137885058,1
85,1005,13,0.209084811243685,1
85,1006,13,0.218387357901509,1
85,1007,13,0.154196429555638,1
86,1002,13,0.162353275556342,1
86,1003,13,0.143449179383248,1
86,1004,13,0.135342926799993,1
86,1005,13,0.158230194679136,1
86,1006,13,0.168769076756809,1
86,1007,13,0.130399964047583,1
87,1001,13,0.160131828827677,1
87,1002,13,0.204155910069588,1
87,1003,13,0.18425590320132,1
87,1004,13,0.138735688869891,1
87,1005,13,0.126516624836808,1
87,1006,13,0.12664860817697,1
88,1000,13,0.159010989135228,1
88,1001,13,0.198421706780714,1
88,1002,13,0.229584519695584,2
88,1003,13,0.200553955524335,1
88,1004,13,0.137757796780092,1
89,999,13,0.185397799930639,1
89,1000,13,0.237241084417614,1
89,1001,13,0.239956146718649,1
89,1002,13,0.213989192982231,1
89,1003,13,0.167070770204227,1
89,1004,13,0.123155848735669,1
90,999,13,0.201145554623979,1
90,1000,13,0.233824851053262,1
90,1001,13,0.200641928715288,1
90,1002,13,0.165350629341601,1
90,1003,13,0.138922575960552,1
90,1004,13,0.124950972905765,1
90,1005,13,0.123772803428368,1
91,1000,13,0.162836303725946,1
91,1002,13,0.134920243293098,1
91,1003,13,0.13906017686592,1
91,1004,13,0.144362958213135,1
91,1005,13,0.14317222281944,1
92,1002,13,0.117015084469809,1
92,1003,13,0.13974622643296,1
92,1004,13,0.155974500823391,1
92,1005,13,0.149347728840763,1
93,1003,13,0.1273464934946,1
93,1004,13,0.140739581548157,1
93,1005,13,0.131199542605357,1
97,1004,13,0.121723569815006,1
97,1005,13,0.134086346947045,1
97,1006,13,0.117621922834392,1
98,1005,13,0.124577069178914,1
98,1006,13,0.115274981818874,1
77,1014,14,0.156311413413323,3
77,1015,14,0.22651330140515,3
77,1016,14,0.205786299434456,3
77,1017,14,0.13545367645029,1
78,1013,14,0.150503286734943,3
78,1014,14,0.323852751862653,3
78,1015,14,0.423886631551506,3
78,1016,14,0.308496142228366,3
78,1017,14,0.176919575026599,3
78,1018,14,0.133297073147247,1
79,1013,14,0.200014339512357,3
79,1014,14,0.394663232972135,3
79,1015,14,0.439344192483363,3
79,1016,14,0.277746744426645,3
79,1017,14,0.152161493057914,1
79,1018,14,0.121879142218285,1
80,1013,14,0.163279408318933,1
80,1014,14,0.263750245076587,3
80,1015,14,0.266387933366302,3
80,1016,14,0.17609174376667,1
81,1013,14,0.117595907736826,1
81,1014,14,0.148216596167205,1
81,1015,14,0.140411572269117,1
83,1007,14,0.121090598584195,1
84,1005,14,0.188563421581004,1
84,1006,14,0.196725838039448,1
84,1007,14,0.144591441195422,1
85,1005,14,0.193834558488581,1
85,1006,14,0.214666833866763,1
85,1007,14,0.155077916218243,1
86,1004,14,0.116949451994148,1
86,1005,14,0.144571279200387,1
86,1006,14,0.161048681419657,1
86,1007,14,0.128583759286883,1
87,1002,14,0.141297204388644,1
87,1006,14,0.119560665888514,1
88,1000,14,0.137851823280302,1
88,1001,14,0.149507152279309,1
88,1002,14,0.158773591065184,1
89,999,14,0.193412817130988,1
89,1000,14,0.222882305107702,1
89,1001,14,0.184229581905231,1
89,1002,14,0.155371065973157,1
89,1003,14,0.125126012468969,1
90,998,14,0.138196461494499,1
90,999,14,0.229721767294964,1
90,1000,14,0.256599826512628,1
90,1001,14,0.180918068435652,1
90,1002,14,0.136351615395059,1
90,1003,14,0.116495088717018,1
90,1005,14,0.122710965835876,1
91,999,14,0.177110336706259,1
91,1000,14,0.184061537800584,1
91,1002,14,0.122216867411988,1
91,1003,14,0.120342072741652,1
91,1004,14,0.127042414807798,1
91,1005,14,0.140213143849522,1
92,1004,14,0.125736266124768,1
92,1005,14,0.139471330820747,1
93,1004,14,0.119422652792827,1
93,1005,14,0.127050976589568,1
97,1004,14,0.116174581301785,1
97,1005,14,0.131959009156655,1
97,1006,14,0.11795019120449,1
98,1005,14,0.127947337434258,1
98,1006,14,0.121718906175968,1
99,1005,14,0.117541616383373,1
99,1006,14,0.119700845927593,1
99,1007,14,0.115888709650219,1
100,1005,14,0.114209010546325,1
100,1006,14,0.114787184018434,1
73,1022,15,0.133755864526091,1
77,1014,15,0.172229084733045,3
77,1015,15,0.256949458118119,3
77,1016,15,0.241696013832259,3
77,1017,15,0.153321467276941,1
78,1013,15,0.161257296828565,3
78,1014,15,0.378120504475727,3
78,1015,15,0.521795352170227,3
78,1016,15,0.384532866831248,3
78,1017,15,0.208056478835699,3
78,1018,15,0.154919847119317,1
79,1013,15,0.226628337834766,3
79,1014,15,0.488750172060016,3
79,1015,15,0.556851267318,3
79,1016,15,0.339076824644063,3
79,1017,15,0.186804558382119,3
79,1018,15,0.172268466573815,1
80,1013,15,0.193825608070225,3
80,1014,15,0.323067917941434,3
80,1015,15,0.322503193650592,3
80,1016,15,0.206879310391935,3
80,1017,15,0.133133798673435,1
80,1018,15,0.117864938469642,1
81,1013,15,0.135394109060753,1
81,1014,15,0.16476884037155,3
81,1015,15,0.15968198786719,3
81,1016,15,0.127955121942855,1
84,1006,15,0.165044595695,1
84,1007,15,0.131289612078505,1
85,1005,15,0.166153846951049,1
85,1006,15,0.190938803728537,1
85,1007,15,0.147022221721836,1
86,1005,15,0.129154713539976,1
86,1006,15,0.15104939180023,1
86,1007,15,0.126346272466374,1
87,1006,15,0.117146749834582,1
89,999,15,0.180670848459148,1
89,1000,15,0.191180724115225,1
90,998,15,0.134843446348225,1
90,999,15,0.234440663389934,1
90,1000,15,0.258605780142489,1
90,1001,15,0.162849705799749,1
90,1005,15,0.121098335985327,1
91,999,15,0.186118002409829,1
91,1000,15,0.201617006134051,1
91,1004,15,0.116771515321844,1
91,1005,15,0.137095713135888,1
92,1005,15,0.131927494262546,1
93,1005,15,0.121033445452241,1
97,1005,15,0.127041566873428,1
97,1006,15,0.117293595579963,1
98,1005,15,0.123406790201911,1
98,1006,15,0.12419115304848,1
99,1005,15,0.118096942734941,1
99,1006,15,0.124904112754921,1
99,1007,15,0.125912024076814,1
100,1005,15,0.121433482045319,1
100,1006,15,0.120775532081173,1
100,1007,15,0.121980352606913,1
101,1005,15,0.114985164917111,1
76,1015,16,0.11910121500516,1
77,1014,16,0.171001205103171,3
77,1015,16,0.246713288610762,3
77,1016,16,0.236106689552101,3
77,1017,16,0.152755588853206,1
78,1013,16,0.155689477106196,3
78,1014,16,0.367595212901717,3
78,1015,16,0.519850567583714,3
78,1016,16,0.393033667987905,3
78,1017,16,0.21590493581655,3
78,1018,16,0.163209371295292,1
79,1013,16,0.21928437825071,3
79,1014,16,0.49338743091808,3
79,1015,16,0.574108710273921,3
79,1016,16,0.356854545997566,3
79,1017,16,0.223972442509814,3
79,1018,16,0.221833480952426,1
79,1019,16,0.136636603781655,1
80,1013,16,0.194843435513508,3
80,1014,16,0.334750310179104,3
80,1015,16,0.344012697722985,3
80,1016,16,0.23273789340504,3
80,1017,16,0.186890505952075,1
80,1018,16,0.175454909723725,1
81,1013,16,0.139955619115041,1
81,1014,16,0.173410163096408,3
81,1015,16,0.183350285739751,3
81,1016,16,0.153780364647581,1
81,1017,16,0.119090827809119,1
84,1006,16,0.12408941270087,1
85,1005,16,0.12998099025356,1
85,1006,16,0.15022039463054,1
85,1007,16,0.125668714019907,1
86,1006,16,0.130131286620754,1
86,1007,16,0.114180357430717,1
89,999,16,0.157488051898106,1
89,1000,16,0.15681631122357,1
90,998,16,0.126984861262392,1
90,999,16,0.211483994437927,1
90,1000,16,0.231336564088905,1
90,1001,16,0.144761546251664,1
90,1005,16,0.1139931759184,1
91,999,16,0.178936881555534,1
91,1000,16,0.200447469099623,1
91,1005,16,0.126254036049836,1
92,1005,16,0.119608774387181,1
97,1005,16,0.123194653509991,1
98,1005,16,0.122717184021261,1
98,1006,16,0.126155710993441,1
99,1004,16,0.114014786467985,1
99,1005,16,0.126764233449899,1
99,1006,16,0.13883592177862,1
99,1007,16,0.133943458228727,1
100,1004,16,0.118165472319701,1
100,1005,16,0.132290127528387,1
100,1006,16,0.136787559653361,1
100,1007,16,0.132228793608911,1
101,1005,16,0.1193849314902,1
101,1006,16,0.117749996254957,1
76,1015,17,0.129185239177319,1
77,1014,17,0.161628044355258,3
77,1015,17,0.21179162973834,3
77,1016,17,0.202458510335708,3
77,1017,17,0.140382942707242,1
78,1013,17,0.139635111699808,3
78,1014,17,0.305742027838816,3
78,1015,17,0.433956040632638,3
78,1016,17,0.346765445996049,3
78,1017,17,0.20741478094699,3
78,1018,17,0.157657827202093,1
79,1013,17,0.190635278554449,3
79,1014,17,0.417351507142104,3
79,1015,17,0.502315661658735,3
79,1016,17,0.347886297465364,3
79,1017,17,0.257285357897552,3
79,1018,17,0.240497694136694,1
79,1019,17,0.144392741907903,1
80,1013,17,0.17542917727095,1
80,1014,17,0.29988805382009,3
80,1015,17,0.32635302767686,3
80,1016,17,0.248904539454339,3
80,1017,17,0.239245318625001,1
80,1018,17,0.213054769305793,1
81,1013,17,0.13548276530995,1
81,1014,17,0.174646133433402,1
81,1015,17,0.200946407815543,3
81,1016,17,0.168633136389584,1
81,1017,17,0.142435803595411,1
82,1015,17,0.133240096668287,1
90,999,17,0.165372628527772,1
90,1000,17,0.180581462044244,1
91,1005,17,0.114133155750752,1
96,1005,17,0.114106116065822,1
97,1005,17,0.116403370482594,1
98,1005,17,0.116041726473519,1
98,1006,17,0.12129053444267,1
99,1005,17,0.124515075754928,1
99,1006,17,0.143073732886918,1
99,1007,17,0.129819729623878,1
100,1005,17,0.130067526666829,1
100,1006,17,0.143722167143127,1
100,1007,17,0.130635254058567,1
101,1005,17,0.116110762463528,1
101,1006,17,0.119304342394391,1
74,1022,18,0.115141915007016,1
77,1014,18,0.147051840540477,1
77,1015,18,0.171485481620599,3
77,1016,18,0.161974284223267,1
77,1017,18,0.124145776782784,1
78,1013,18,0.123830745610362,1
78,1014,18,0.236755335791903,3
78,1015,18,0.334064449041924,3
78,1016,18,0.297474502849012,3
78,1017,18,0.200472530271021,1
78,1018,18,0.147182080904433,1
79,1013,18,0.160521348679187,3
79,1014,18,0.323091942748602,3
79,1015,18,0.422000307329102,3
79,1016,18,0.361551066046644,3
79,1017,18,0.287734210072349,3
79,1018,18,0.225212169667145,1
79,1019,18,0.136908036995188,1
80,1013,18,0.153753148309657,1
80,1014,18,0.253970570459154,3
80,1015,18,0.30457578832694,3
80,1016,18,0.275960028939058,3
80,1017,18,0.270307769085613,1
80,1018,18,0.211051053280521,1
81,1013,18,0.132196301234903,1
81,1014,18,0.178047728152994,1
81,1015,18,0.213682829583375,3
81,1016,18,0.179349978693294,1
81,1017,18,0.151836239565579,1
82,1014,18,0.133988257427976,1
82,1015,18,0.158870184922238,1
82,1016,18,0.116404724822214,1
99,1005,18,0.13132507222281,1
99,1006,18,0.141533224565337,1
99,1007,18,0.114519719608831,1
100,1005,18,0.133367051286557,1
100,1006,18,0.144202192211836,1
100,1007,18,0.119870173710662,1
101,1005,18,0.116061099418515,1
101,1006,18,0.120339964682591,1
74,1022,19,0.14317250546423,1
75,1021,19,0.118944877105574,1
77,1015,19,0.13867566218257,1
77,1016,19,0.12917443979096,1
78,1014,19,0.173384230436906,1
78,1015,19,0.240822358785717,3
78,1016,19,0.251613124478933,3
78,1017,19,0.191239961752507,1
78,1018,19,0.135957632111237,1
79,1013,19,0.132528020226815,1
79,1014,19,0.23580430673404,3
79,1015,19,0.34467474603659,3
79,1016,19,0.379265946041791,3
79,1017,19,0.304778633071381,3
79,1018,19,0.19838256047727,1
79,1019,19,0.127989745929656,1
80,1013,19,0.137977423558952,1
80,1014,19,0.215936332941996,1
80,1015,19,0.282771674168216,3
80,1016,19,0.303883873880503,3
80,1017,19,0.272109464747081,3
80,1018,19,0.18443520599011,1
81,1013,19,0.136106550585079,1
81,1014,19,0.186026225291075,1
81,1015,19,0.213990700421112,1
81,1016,19,0.186479481542777,3
81,1017,19,0.151578561731836,1
82,1013,19,0.13064402782393,1
82,1014,19,0.164250458049436,1
82,1015,19,0.174168263531219,1
82,1016,19,0.122935291584374,1
83,1013,19,0.12817489004411,1
83,1014,19,0.149131399584456,1
83,1015,19,0.137464635248311,1
98,1005,19,0.11506959327132,1
99,1004,19,0.116859735826989,1
99,1005,19,0.142762776510221,1
99,1006,19,0.138667218169462,1
100,1005,19,0.135844762625013,1
100,1006,19,0.136909096913151,1
101,1006,19,0.11690194411566,1
74,1021,20,0.184813007859692,1
74,1022,20,0.166830887215401,1
75,1021,20,0.139598379653947,1
75,1022,20,0.133232665465678,1
78,1014,20,0.135268697211964,1
78,1015,20,0.177042266419283,1
78,1016,20,0.21141769068089,3
78,1017,20,0.175280270573973,1
78,1018,20,0.127332161048363,1
79,1014,20,0.175009873724671,1
79,1015,20,0.278608928805452,3
79,1016,20,0.370995971463805,3
79,1017,20,0.293652203136057,3
79,1018,20,0.173594518160823,1
79,1019,20,0.122259534998444,1
80,1013,20,0.130345378272473,1
80,1014,20,0.194382418306941,1
80,1015,20,0.271369736223634,3
80,1016,20,0.329374853790205,3
80,1017,20,0.261189930798192,3
80,1018,20,0.158440623725449,1
81,1013,20,0.145938090521516,1
81,1014,20,0.197914924671866,1
81,1015,20,0.213542590659965,1
81,1016,20,0.197078402084637,3
81,1017,20,0.150096195798975,1
82,1013,20,0.154797096842302,1
82,1014,20,0.201334220021445,1
82,1015,20,0.17890733339809,1
82,1016,20,0.122987121572779,1
83,1013,20,0.170325754715763,1
83,1014,20,0.2232471524244,1
83,1015,20,0.174967053038954,1
84,1013,20,0.127614770507976,1
84,1014,20,0.150372245544081,1
84,1015,20,0.114905906607189,1
86,1011,20,0.119222446066428,1
87,1010,20,0.12562350263034,1
87,1011,20,0.127864663833121,1
91,1006,20,0.12469711077669,1
92,1006,20,0.118331573241415,1
98,1005,20,0.126310659222808,1
98,1006,20,0.115673510973072,1
99,1004,20,0.127022193928432,1
99,1005,20,0.164189606981477,1
99,1006,20,0.147732920269956,1
100,1004,20,0.119865945815675,1
100,1005,20,0.150544423328785,1
100,1006,20,0.142121196390174,1
101,1005,20,0.118145534085125,1
101,1006,20,0.119942742760548,1
102,1006,20,0.115735209975401,1
102,1007,20,0.116143643474123,1
103,1007,20,0.114126336945188,1
74,1022,21,0.174368635133746,1
75,1021,21,0.150346348215178,1
75,1022,21,0.141721937070268,1
78,1015,21,0.146818281728833,1
78,1016,21,0.178035798187474,3
78,1017,21,0.159194908455592,1
78,1018,21,0.120690844635906,1
79,1014,21,0.145203638034153,1
79,1015,21,0.233785115906504,3
79,1016,21,0.338119812938141,3
79,1017,21,0.267414428583152,3
79,1018,21,0.153692921415609,1
79,1019,21,0.118294158137311,1
79,1020,21,0.133775178586755,1
79,1021,21,0.133850256109155,1
80,1013,21,0.136102617111749,1
80,1014,21,0.194421305519327,1
80,1015,21,0.283700821808571,3
80,1016,21,0.358595802781394,3
80,1017,21,0.2557161140223,3
80,1018,21,0.13935736608596,1
81,1013,21,0.164688769457856,1
81,1014,21,0.218435007102392,1
81,1015,21,0.227663123965461,1
81,1016,21,0.217764079031629,3
81,1017,21,0.150456968319947,1
82,1013,21,0.182177580728298,1
82,1014,21,0.236974032198329,1
82,1015,21,0.181568045461342,1
82,1016,21,0.123641479592716,1
83,1012,21,0.119596891529126,1
83,1013,21,0.214197054671699,1
83,1014,21,0.293279182674176,1
83,1015,21,0.200151233805749,1
84,1013,21,0.153910781664531,1
84,1014,21,0.197596855067948,1
84,1015,21,0.140338496813981,1
86,1010,21,0.115977813420333,1
86,1011,21,0.132852414007913,1
87,1010,21,0.157252373250535,1
87,1011,21,0.175985422218085,1
88,1010,21,0.138479754012355,1
88,1011,21,0.148303497663328,1
91,1006,21,0.124719816574837,1
92,1006,21,0.128041163727742,1
98,1004,21,0.114211495465106,1
98,1005,21,0.131716299719927,1
98,1006,21,0.120208087334225,1
99,1004,21,0.130898490573184,1
99,1005,21,0.170765950422785,1
99,1006,21,0.150124672261589,1
100,1004,21,0.125532326131764,1
100,1005,21,0.158078826617112,1
100,1006,21,0.144744281365728,1
101,1005,21,0.124394680851164,1
101,1006,21,0.124045744080782,1
102,1006,21,0.123265161608283,1
102,1007,21,0.1260693041257,1
103,1006,21,0.120505052793807,1
103,1007,21,0.133150133186936,1
103,1008,21,0.124757820522254,1
104,1007,21,0.119399511250629,1
104,1008,21,0.12274599023613,1
105,1008,21,0.11639532688294,1
105,1009,21,0.123690871769806,1
106,1009,21,0.129333227278727,1
106,1010,21,0.131003022038097,1
107,1010,21,0.119900346042017,1
114,1016,21,0.116531773655414,1
114,1017,21,0.128684639923256,1
115,1017,21,0.118622556052937,1
75,1022,22,0.13955719595264,1
78,1015,22,0.128091969128782,1
78,1016,22,0.147827676935874,1
78,1017,22,0.140090640886698,1
79,1014,22,0.123910498548666,1
79,1015,22,0.189205213684643,1
79,1016,22,0.272757899003291,3
79,1017,22,0.221216891342581,1
79,1018,22,0.133357099834568,1
79,1020,22,0.138982838185198,1
79,1021,22,0.15086803983671,1
80,1012,22,0.114782543933129,1
80,1013,22,0.135189168034118,1
80,1014,22,0.180912144671924,1
80,1015,22,0.267658845665487,1
80,1016,22,0.339422664098619,3
80,1017,22,0.233032715474962,1
80,1018,22,0.122617999253629,1
80,1020,22,0.135049753491346,1
80,1021,22,0.138044174836907,1
81,1012,22,0.119986034520916,1
81,1013,22,0.173716585379595,1
81,1014,22,0.215895608538473,1
81,1015,22,0.221590971722425,1
81,1016,22,0.215268890823645,1
81,1017,22,0.142069283963705,1
82,1012,22,0.121305161310564,1
82,1013,22,0.19642058166602,1
82,1014,22,0.239060492485935,1
82,1015,22,0.171907705829709,1
82,1016,22,0.119605076451176,1
83,1012,22,0.126176744476579,1
83,1013,22,0.225410963169594,1
83,1014,22,0.298467645980617,1
83,1015,22,0.190921409297073,1
84,1013,22,0.158173453737502,1
84,1014,22,0.206602930894574,1
84,1015,22,0.146053126951132,1
86,1010,22,0.120281916508802,1
86,1011,22,0.139294277413412,1
87,1010,22,0.181117827641134,1
87,1011,22,0.222154636095304,1
87,1012,22,0.122195468845996,1
88,1010,22,0.173976441933596,1
88,1011,22,0.202901862242886,1
90,1007,22,0.118936468423065,1
90,1008,22,0.118895744019542,1
91,1006,22,0.114939258692434,1
91,1007,22,0.129941125561274,1
92,1006,22,0.127301211443835,1
92,1007,22,0.116053456232313,1
99,1005,22,0.134401437003799,1
99,1006,22,0.118911030391946,1
100,1005,22,0.132232927288968,1
100,1006,22,0.122442241301583,1
101,1006,22,0.115323490730994,1
102,1006,22,0.124296461786566,1
102,1007,22,0.132467781555901,1
102,1008,22,0.120777581255902,1
103,1006,22,0.128914017947379,1
103,1007,22,0.154883586148106,1
103,1008,22,0.154994276914073,1
103,1009,22,0.115908271025074,1
104,1007,22,0.137587962591774,1
104,1008,22,0.149819368780696,1
104,1009,22,0.127603229179042,1
105,1008,22,0.13140553177309,1
105,1009,22,0.142817315177865,1
105,1010,22,0.115961855766552,1
106,1008,22,0.122144039271044,1
106,1010,22,0.156171315812308,1
107,1010,22,0.149835255773279,1
113,1017,22,0.116197404868594,1
114,1016,22,0.126698871842163,1
114,1017,22,0.145111272072085,1
114,1018,22,0.114017506924091,1
115,1016,22,0.120615814220971,1
115,1017,22,0.136618255424024,1
116,1017,22,0.128083077594757,1
75,1021,23,0.142442504632313,1
75,1022,23,0.137554280754273,1
76,1021,23,0.115039067633978,1
76,1022,23,0.115740851094339,1
77,1017,23,0.118849460935145,1
78,1016,23,0.140492938638099,1
78,1017,23,0.137004277546255,1
79,1014,23,0.118270463082398,1
79,1015,23,0.159761729028628,1
79,1016,23,0.214275441493518,1
79,1017,23,0.182497157771097,1
79,1018,23,0.120932635477065,1
79,1020,23,0.125220192068441,1
79,1021,23,0.144405767121985,1
79,1022,23,0.115333936811365,1
80,1013,23,0.138780052325088,1
80,1014,23,0.167638379827302,1
80,1015,23,0.237404853519809,1
80,1016,23,0.288769325955299,1
80,1017,23,0.201788406645582,1
80,1018,23,0.11517615035723,1
80,1020,23,0.151751151706859,1
80,1021,23,0.168268253742288,1
80,1022,23,0.120790512255054,1
81,1012,23,0.139247829452887,1
81,1013,23,0.186315853762977,1
81,1014,23,0.202961406078691,1
81,1015,23,0.209894729890035,1
81,1016,23,0.207335287099743,1
81,1017,23,0.140579757696159,1
81,1020,23,0.140890042791479,1
81,1021,23,0.141466791262771,1
82,1012,23,0.15865549265034,1
82,1013,23,0.219429233705693,1
82,1014,23,0.221521558872696,1
82,1015,23,0.164729340762118,1
82,1016,23,0.124880441253741,1
83,1012,23,0.155774918270904,1
83,1013,23,0.22665064321946,1
83,1014,23,0.256367963569725,1
83,1015,23,0.171078414238363,1
84,1012,23,0.120924792084137,1
84,1013,23,0.157828120688195,1
84,1014,23,0.192274865651865,1
84,1015,23,0.144365608008043,1
86,1010,23,0.129734830195018,1
86,1011,23,0.141296344677408,1
87,1010,23,0.178881436069187,1
87,1011,23,0.225508334299821,1
87,1012,23,0.133087303605445,1
88,1010,23,0.171838186988183,1
88,1011,23,0.209142871194341,1
88,1012,23,0.116246161094906,1
90,1007,23,0.113836732027018,1
90,1008,23,0.12828462688391,1
91,1007,23,0.140320219117547,1
91,1008,23,0.134513858969106,1
92,1006,23,0.121169644910524,1
92,1007,23,0.137056036873462,1
100,1005,23,0.116575454052368,1
101,1005,23,0.114558665705549,1
101,1006,23,0.12052229412601,1
102,1005,23,0.113835189257538,1
102,1006,23,0.130732837172388,1
102,1007,23,0.141603285142711,1
102,1008,23,0.132560029749306,1
103,1006,23,0.13209504373881,1
103,1007,23,0.167120951431356,1
103,1008,23,0.179134414933293,1
103,1009,23,0.140787584055028,1
104,1006,23,0.11688308935278,1
104,1007,23,0.149099448946296,1
104,1008,23,0.170668932598545,1
104,1009,23,0.148161186011457,1
105,1007,23,0.120698817574363,1
105,1008,23,0.143891542033661,1
105,1010,23,0.11907618916436,1
108,1010,23,0.123107127839956,1
113,1013,23,0.122661243906532,1
113,1014,23,0.126167122776846,1
113,1015,23,0.12131420594385,1
113,1016,23,0.117460179353194,1
113,1017,23,0.114839143552368,1
114,1014,23,0.128356830850943,1
114,1015,23,0.129103248634425,1
114,1016,23,0.136285441183551,1
114,1017,23,0.148764821068418,1
114,1018,23,0.117149046323503,1
115,1015,23,0.124173770393882,1
115,1016,23,0.132668506464416,1
115,1017,23,0.149423442313941,1
115,1018,23,0.126468716544867,1
116,1016,23,0.124415737888035,1
116,1017,23,0.134361277889857,1
116,1018,23,0.120917419765859,1
116,1020,23,0.114067405506429,1
117,1018,23,0.118763336712195,1
117,1023,23,0.115381786218975,1
75,1022,24,0.12436563909897,1
76,1021,24,0.116717223968391,1
76,1022,24,0.120136413326174,1
78,1016,24,0.146276251459272,1
78,1017,24,0.141484798091281,1
79,1015,24,0.143465054598965,1
79,1016,24,0.171778654929245,1
79,1017,24,0.15055246692844,1
79,1021,24,0.121377129740271,1
80,1013,24,0.135683101581878,1
80,1014,24,0.151674660960508,1
80,1015,24,0.200568747268356,1
80,1016,24,0.223122788716707,1
80,1017,24,0.165101878372482,1
80,1020,24,0.14294394004388,1
80,1021,24,0.167180730804485,1
80,1022,24,0.12925190801721,1
81,1012,24,0.153951670944182,1
81,1013,24,0.178600192726061,1
81,1014,24,0.178360345067834,1
81,1015,24,0.196665010525221,1
81,1016,24,0.196641091709849,1
81,1017,24,0.140951306049757,1
81,1019,24,0.11937791247791,1
81,1020,24,0.177087972437234,1
81,1021,24,0.175235412490394,1
82,1011,24,0.129428431465563,1
82,1012,24,0.195335885176119,1
82,1013,24,0.217352006481233,1
82,1014,24,0.189574465549322,1
82,1015,24,0.164661317582607,1
82,1016,24,0.141848927019137,1
82,1020,24,0.148758685321097,1
82,1021,24,0.125706953504649,1
83,1011,24,0.132112108418019,1
83,1012,24,0.179386958053346,1
83,1013,24,0.199975805605958,1
83,1014,24,0.19274372625136,1
83,1015,24,0.149204192394801,1
84,1009,24,0.147396490531541,1
84,1010,24,0.11673189794375,1
84,1012,24,0.122258239543156,1
84,1013,24,0.142600232202117,1
84,1014,24,0.161487240142268,1
84,1015,24,0.13244681873396,1
85,1009,24,0.130569303607518,1
85,1010,24,0.11857491862892,1
86,1010,24,0.134593176163359,1
86,1011,24,0.131115950408653,1
87,1010,24,0.162226591805996,1
87,1011,24,0.190395101143967,1
87,1012,24,0.12498699833965,1
88,1010,24,0.146334970914438,1
88,1011,24,0.171668140816272,1
90,1008,24,0.116979483003108,1
91,1007,24,0.129984994388088,1
91,1008,24,0.140301541007661,1
92,1007,24,0.138534693093452,1
92,1008,24,0.12216996015368,1
94,1004,24,0.122939590140558,1
95,1003,24,0.117382110506764,1
95,1004,24,0.12410279122094,1
100,1005,24,0.119140903044452,1
100,1006,24,0.115390406885076,1
101,1005,24,0.125821954603667,1
101,1006,24,0.131754068130019,1
101,1007,24,0.121025637389911,1
102,1005,24,0.124020223611599,1
102,1006,24,0.140435691291215,1
102,1007,24,0.144306664792418,1
102,1008,24,0.130435424191888,1
103,1006,24,0.133962536752067,1
103,1007,24,0.162423112373256,1
103,1008,24,0.171910202525356,1
103,1009,24,0.142828032126161,1
104,1006,24,0.119594241734218,1
104,1007,24,0.150304281248902,1
104,1008,24,0.167472891302634,1
104,1009,24,0.150469887542233,1
105,1007,24,0.125083556866106,1
105,1010,24,0.114442145390784,1
108,1010,24,0.125055280610219,1
112,1014,24,0.119798535033209,1
113,1015,24,0.130715513402121,1
113,1016,24,0.121035635949365,1
114,1016,24,0.142635492139695,1
114,1017,24,0.14058211306941,1
115,1017,24,0.150633915735486,1
115,1018,24,0.130945692253149,1
116,1017,24,0.134611913157577,1
116,1018,24,0.128147391061396,1
116,1019,24,0.119734433550163,1
116,1020,24,0.118151976030968,1
117,1017,24,0.130777860132095,1
117,1018,24,0.121201218688963,1
117,1023,24,0.114406308386759,1
118,1019,24,0.116434802938639,1
118,1023,24,0.124022296340061,1
76,1021,25,0.114908002889383,1
76,1022,25,0.116652215666643,1
77,1018,25,0.126815427487526,1
78,1017,25,0.149369068522424,1
78,1018,25,0.116031822128996,1
79,1015,25,0.136353641016055,1
79,1016,25,0.146806445978243,1
79,1017,25,0.128133353036816,1
80,1014,25,0.135187731256434,1
80,1015,25,0.162591521560757,1
80,1016,25,0.163036946196397,1
80,1017,25,0.128895363391225,1
80,1020,25,0.141420731938833,1
80,1021,25,0.157993267683742,1
80,1022,25,0.13504665617552,1
80,1023,25,0.126579748839955,1
80,1024,25,0.128934144611815,1
81,1013,25,0.156273597895766,1
81,1014,25,0.150544647089244,1
81,1015,25,0.172747031311107,1
81,1016,25,0.172010623863945,1
81,1017,25,0.13346484638397,1
81,1018,25,0.117254590598914,1
81,1019,25,0.145886095656984,1
81,1020,25,0.204481940835097,1
81,1021,25,0.191221236535155,1
81,1022,25,0.131935066787551,1
82,1012,25,0.20621707364847,1
82,1013,25,0.184904101920204,1
82,1014,25,0.154264864925468,1
82,1015,25,0.159398188944085,1
82,1016,25,0.155224373327037,1
82,1017,25,0.124306413238554,1
82,1019,25,0.140243846139859,1
82,1020,25,0.179028847104149,1
82,1021,25,0.146074525517125,1
83,1011,25,0.162307122017473,1
83,1012,25,0.182578995214729,1
83,1013,25,0.161761499803703,1
83,1014,25,0.142799590994146,1
83,1015,25,0.13347476250536,1
83,1016,25,0.121646066258157,1
84,1010,25,0.137994794436684,1
84,1011,25,0.122311223664454,1
84,1012,25,0.117786233672435,1
84,1013,25,0.122900479167713,1
84,1014,25,0.130904543882441,1
84,1015,25,0.118166284923473,1
85,1009,25,0.149016469146636,1
85,1010,25,0.128049772616977,1
86,1009,25,0.116206932353398,1
86,1010,25,0.135150799003847,1
86,1011,25,0.119348364320467,1
87,1010,25,0.147119675290128,1
87,1011,25,0.148075438648227,1
87,1012,25,0.114748438128443,1
88,1010,25,0.122009476797171,1
88,1011,25,0.126262856922663,1
91,1008,25,0.124464623659875,1
92,1007,25,0.125452844061383,1
92,1008,25,0.119933874780255,1
93,1007,25,0.114815566266118,1
94,1003,25,0.11664564417527,1
94,1004,25,0.127124028490972,1
95,1003,25,0.12733919183752,1
95,1004,25,0.129727822959594,1
98,1004,25,0.116147470955657,1
99,1004,25,0.12226618892788,1
99,1005,25,0.116865188516067,1
100,1004,25,0.11917868323141,1
100,1005,25,0.120617050791928,1
100,1006,25,0.114624839917057,1
101,1004,25,0.11912161253752,1
101,1005,25,0.132502381988969,1
101,1006,25,0.138436250268395,1
101,1007,25,0.128327424015894,1
102,1004,25,0.118960187031711,1
102,1005,25,0.136433735483481,1
102,1006,25,0.151956469593215,1
102,1007,25,0.150116875976126,1
102,1008,25,0.130396054127985,1
103,1005,25,0.119093418719696,1
103,1006,25,0.137981604346474,1
103,1007,25,0.156193161899218,1
103,1008,25,0.157697574125716,1
103,1009,25,0.136119352038703,1
104,1006,25,0.122403566072789,1
104,1007,25,0.1497364714191,1
104,1009,25,0.149278174668639,1
105,1007,25,0.134262163783423,1
105,1010,25,0.114672100481353,1
112,1015,25,0.119959053720317,1
113,1016,25,0.121766390500723,1
114,1017,25,0.122226041590804,1
115,1018,25,0.117012564220429,1
116,1018,25,0.122297397623466,1
116,1019,25,0.120067813080217,1
117,1018,25,0.118950906861099,1
117,1019,25,0.114513348324185,1
118,1019,25,0.1149219584759,1
118,1023,25,0.124558968135474,1
119,1021,25,0.115502192899605,1
78,1018,26,0.121281713569842,1
79,1024,26,0.126382627652515,1
80,1019,26,0.13418995981639,1
80,1020,26,0.155283163443401,1
80,1021,26,0.157473436807079,1
80,1022,26,0.143929911063932,1
80,1023,26,0.149076024759307,1
80,1024,26,0.157101499816893,1
81,1013,26,0.121654946015316,1
81,1014,26,0.114068265217666,1
81,1015,26,0.128058993903258,1
81,1016,26,0.124949983648999,1
81,1018,26,0.134075288469628,1
81,1019,26,0.184482596099935,1
81,1020,26,0.221264328559871,1
81,1021,26,0.205540775326693,1
81,1022,26,0.163963632471703,1
81,1023,26,0.143872863923775,1
81,1024,26,0.138894335035263,1
82,1012,26,0.175863508098574,1
82,1013,26,0.136135969196994,1
82,1014,26,0.119024736035675,1
82,1015,26,0.135042864024585,1
82,1016,26,0.140309407954322,1
82,1017,26,0.129767428560823,1
82,1018,26,0.134735617360759,1
82,1019,26,0.162795803082882,1
82,1020,26,0.185827337573696,1
82,1021,26,0.162116030585558,1
82,1022,26,0.122727724316563,1
83,1011,26,0.169714558910664,1
83,1012,26,0.155056847404506,1
83,1013,26,0.123378301962431,1
83,1015,26,0.11469471206457,1
83,1016,26,0.125072616157352,1
83,1017,26,0.12940964736388,1
83,1018,26,0.122618894295465,1
83,1019,26,0.115695345283115,1
84,1010,26,0.146602341109111,1
84,1011,26,0.120216802215257,1
85,1009,26,0.149215274425951,1
85,1010,26,0.125353070450439,1
86,1009,26,0.115458088535466,1
86,1010,26,0.123463531143546,1
87,1009,26,0.116671718157167,1
87,1010,26,0.132988542804999,1
87,1011,26,0.117045492338489,1
101,1004,26,0.116110208950814,1
101,1005,26,0.125961863774821,1
101,1006,26,0.131785147280076,1
101,1007,26,0.1274533332253,1
102,1004,26,0.132221209307041,1
102,1005,26,0.147337382439788,1
102,1006,26,0.157563624048889,1
102,1007,26,0.153166130410987,1
102,1008,26,0.131535995897505,1
103,1005,26,0.13676051996843,1
103,1006,26,0.147356343194465,1
103,1007,26,0.156060071533628,1
103,1009,26,0.129746983920997,1
104,1006,26,0.129643418159118,1
104,1010,26,0.118301177149601,1
105,1006,26,0.120682907028048,1
115,1018,26,0.113881813871057,1
116,1018,26,0.124617640483176,1
116,1019,26,0.126609285220532,1
116,1020,26,0.117454679556651,1
117,1018,26,0.126595011658627,1
117,1019,26,0.126034621254568,1
117,1020,26,0.122942345927263,1
117,1021,26,0.1236987269396,1
117,1022,26,0.123019873037845,1
117,1023,26,0.124625248338779,1
117,1024,26,0.116895384401154,1
118,1020,26,0.11993124853908,1
118,1021,26,0.123868961541371,1
78,1018,27,0.126200015564306,1
79,1024,27,0.132321760191158,1
80,1019,27,0.151561732589952,1
80,1020,27,0.159240555589211,1
80,1021,27,0.157417249378158,1
80,1022,27,0.149582795091289,1
80,1023,27,0.157290883603201,1
80,1024,27,0.168634043208286,1
81,1018,27,0.153100933679378,1
81,1019,27,0.203919006627926,1
81,1020,27,0.210469205426139,1
81,1021,27,0.2104472297937,1
81,1022,27,0.186954948964243,1
81,1023,27,0.162223470936437,1
81,1024,27,0.15652343233658,1
82,1016,27,0.119686113067903,1
82,1017,27,0.136717663952115,1
82,1018,27,0.161234909005807,1
82,1019,27,0.172595804571478,1
82,1020,27,0.168513848511249,1
82,1021,27,0.163310781890647,1
82,1022,27,0.138667818789642,1
83,1011,27,0.153558735801457,1
83,1012,27,0.118639114326897,1
83,1016,27,0.128334713896109,1
83,1017,27,0.157476133709452,1
83,1018,27,0.157748662171547,1
83,1019,27,0.139502963483518,1
83,1020,27,0.123512063609398,1
84,1016,27,0.116928253634883,1
84,1017,27,0.136027162729629,1
84,1018,27,0.128050985634202,1
85,1010,27,0.115480817887345,1
86,1009,27,0.114022158786263,1
101,1004,27,0.115850211074419,1
101,1005,27,0.122198754591682,1
101,1006,27,0.124147284221666,1
101,1007,27,0.123592016754429,1
102,1004,27,0.146351493857799,1
102,1005,27,0.159890980135818,1
102,1006,27,0.158221891988424,1
102,1007,27,0.153110449387316,1
102,1008,27,0.134259761302706,1
103,1005,27,0.160219260282782,1
103,1006,27,0.15903182241164,1
103,1009,27,0.125523434597739,1
104,1005,27,0.126166745917125,1
107,1011,27,0.115700185575148,1
115,1018,27,0.116398518413696,1
116,1022,27,0.117315948072122,1
116,1023,27,0.117427969623976,1
116,1024,27,0.114454770191414,1
78,1018,28,0.114425304472034,1
79,1024,28,0.131489901242968,1
80,1019,28,0.143148951731713,1
80,1020,28,0.141679033946487,1
80,1021,28,0.143940569127897,1
80,1022,28,0.138266510295007,1
80,1023,28,0.147515884401673,1
80,1024,28,0.162067050598788,1
81,1018,28,0.157462531428923,1
81,1019,28,0.189035744579179,1
81,1020,28,0.179865381468244,1
81,1021,28,0.195531475370945,1
81,1022,28,0.176797154501839,1
81,1023,28,0.156874806918278,1
81,1024,28,0.157136535994013,1
82,1011,28,0.11965867296952,1
82,1017,28,0.137690727526748,1
82,1018,28,0.175930106277268,1
82,1019,28,0.164403239335412,1
82,1020,28,0.143583942063848,1
82,1021,28,0.149738073072911,1
82,1022,28,0.132408932555206,1
83,1010,28,0.143542169519228,1
83,1011,28,0.120825736862034,1
83,1016,28,0.120773965757961,1
83,1017,28,0.166282674091054,1
83,1018,28,0.179575729442608,1
83,1019,28,0.151668219014664,1
83,1020,28,0.124900026182329,1
84,1010,28,0.123290305217745,1
84,1016,28,0.119957899587423,1
84,1017,28,0.14864906624996,1
84,1018,28,0.144127161796901,1
84,1019,28,0.125522433564107,1
85,1017,28,0.119036830877323,1
86,1009,28,0.115253359492423,1
102,1005,28,0.154602554788573,1
102,1006,28,0.143221061483815,1
102,1007,28,0.140062670829334,1
102,1008,28,0.127531084096341,1
103,1005,28,0.167895374602802,1
103,1006,28,0.159548320435152,1
103,1009,28,0.120094016607643,1
110,1016,28,0.118768153450495,1
113,1017,28,0.117229800295439,1
114,1018,28,0.118678131084812,1
116,1024,28,0.12701908483574,1
79,1024,29,0.123036796394658,1
80,1019,29,0.117114881634486,1
80,1020,29,0.116108454197742,1
80,1021,29,0.123127548926049,1
80,1022,29,0.122677790403625,1
80,1023,29,0.131128269010759,1
80,1024,29,0.142584698515521,1
81,1018,29,0.146107700949376,1
81,1019,29,0.154025464788159,1
81,1020,29,0.147651023941992,1
81,1021,29,0.163970074417547,1
81,1022,29,0.1500011447114,1
81,1023,29,0.139945279026466,1
81,1024,29,0.14270888557022,1
82,1017,29,0.141500296447277,1
82,1018,29,0.175998800738155,1
82,1019,29,0.150399532543203,1
82,1020,29,0.128906327653712,1
82,1021,29,0.130930193897153,1
82,1022,29,0.116624893336922,1
83,1016,29,0.114457997052769,1
83,1017,29,0.163078671633552,1
83,1018,29,0.183826330227664,1
83,1019,29,0.153909215341319,1
83,1020,29,0.121811354576099,1
84,1016,29,0.126659289794667,1
84,1017,29,0.156713098767678,1
84,1018,29,0.15502736990826,1
84,1019,29,0.134301686946587,1
85,1016,29,0.126350688791221,1
85,1017,29,0.138278369599329,1
85,1018,29,0.11661070221308,1
102,1005,29,0.140329982139676,1
102,1006,29,0.12615247235522,1
102,1007,29,0.126230976945701,1
102,1008,29,0.119929929530059,1
103,1005,29,0.16210239297443,1
103,1006,29,0.155585404939067,1
103,1009,29,0.118481139442901,1
111,1017,29,0.113904460784873,1
112,1017,29,0.118476487580729,1
112,1018,29,0.123574869637157,1
113,1017,29,0.128939314656103,1
113,1018,29,0.131845079752467,1
115,1023,29,0.120849031503494,1
115,1024,29,0.115783542234528,1
116,1024,29,0.131572292199315,1
80,1024,30,0.119057487500741,1
81,1021,30,0.118954581243371,1
81,1022,30,0.117424047927512,1
81,1023,30,0.119191814437289,1
81,1024,30,0.120569130723121,1
82,1017,30,0.128325563271026,1
82,1018,30,0.146968660534091,1
82,1019,30,0.125006877689895,1
83,1017,30,0.138794914730306,1
83,1018,30,0.156910349500647,1
83,1019,30,0.132564693388345,1
84,1016,30,0.116710004749375,1
84,1017,30,0.143343858868296,1
84,1018,30,0.143201994737342,1
84,1019,30,0.120938123496742,1
85,1016,30,0.124556471439827,1
85,1017,30,0.13980559361577,1
85,1018,30,0.11792736763768,1
103,1006,30,0.138414863479269,1
103,1008,30,0.131091171882044,1
104,1009,30,0.116383608901012,1
109,1013,30,0.120844838939106,1
109,1014,30,0.115112449287636,1
110,1014,30,0.119645541763641,1
111,1015,30,0.114132107609655,1
111,1017,30,0.1183685761552,1
111,1018,30,0.118369482973902,1
112,1018,30,0.135415908040198,1
115,1024,30,0.117514529590978,1
83,1018,31,0.115730781873688,1
84,1017,31,0.119237732438832,1
84,1018,31,0.11839888980895,1
85,1017,31,0.127838731173619,1
85,1018,31,0.11812842229845,1
92,1024,31,0.115549100157914,1
103,1007,31,0.118719255901788,1
104,1008,31,0.129184944755663,1
109,1013,31,0.129539063347198,1
109,1014,31,0.123780858804889,1
110,1014,31,0.129558294969799,1
111,1018,31,0.128720017629498,1
111,1019,31,0.118453181162403,1
114,1023,31,0.114223284108231,1
114,1024,31,0.118631671347421,1
115,1023,31,0.122197894880445,1
85,1018,32,0.114242350854704,1
91,1024,32,0.123447761919625,1
92,1024,32,0.117636537925419,1
106,1022,32,0.116533269317429,1
108,1013,32,0.116558672017949,1
109,1013,32,0.132917069003674,1
109,1014,32,0.1300577989753,1
109,1015,32,0.115921449338418,1
110,1014,32,0.138058295299551,1
110,1015,32,0.115634211570366,1
111,1019,32,0.13976797830494,1
111,1020,32,0.129211006960693,1
112,1021,32,0.120578069364612,1
114,1023,32,0.116594944766026,1
91,1024,33,0.130297623079794,1
92,1023,33,0.117413213210554,1
92,1024,33,0.115294025011614,1
104,1021,33,0.120130819314701,1
105,1021,33,0.144819229342599,1
105,1022,33,0.142782102347751,1
105,1024,33,0.120598137144717,1
106,1021,33,0.139887831472855,1
106,1022,33,0.148858058518589,1
107,1021,33,0.119838493940425,1
107,1022,33,0.128825185045189,1
108,1014,33,0.12446476498227,1
108,1020,33,0.117644546194475,1
108,1021,33,0.116679655765026,1
108,1022,33,0.119482396835358,1
109,1015,33,0.118790105529201,1
109,1019,33,0.113877256223815,1
109,1020,33,0.121894699458613,1
109,1021,33,0.123749167257787,1
109,1022,33,0.128726094492487,1
109,1023,33,0.123900217344422,1
109,1024,33,0.129518595153641,1
110,1018,33,0.127142117757545,1
110,1019,33,0.141123660487455,1
110,1020,33,0.137749329213252,1
110,1021,33,0.125158387074315,1
110,1022,33,0.118032217077982,1
110,1023,33,0.117425637804457,1
110,1024,33,0.127275149238805,1
111,1019,33,0.172122209671747,1
111,1020,33,0.157370471665378,1
111,1021,33,0.124060547601669,1
112,1020,33,0.153583055030281,1
112,1021,33,0.123795403234719,1
113,1021,33,0.12875095545716,1
114,1022,33,0.120931292914312,1
104,1021,34,0.182409997183916,1
104,1022,34,0.16924519190592,1
105,1020,34,0.121650447252405,1
105,1021,34,0.208060176771705,1
105,1022,34,0.202177278769447,1
105,1023,34,0.138359535761585,1
106,1021,34,0.170029177892768,1
106,1022,34,0.182397325275821,1
106,1023,34,0.13649855535537,1
107,1021,34,0.129912943520316,1
107,1022,34,0.144539163686099,1
107,1023,34,0.117849475444245,1
108,1020,34,0.12323318741639,1
108,1021,34,0.124310947332064,1
108,1022,34,0.127001961272199,1
109,1019,34,0.124269916730018,1
109,1020,34,0.132894374982394,1
109,1021,34,0.130835083925246,1
109,1022,34,0.132326400276464,1
109,1023,34,0.129237245818718,1
110,1018,34,0.134713853711913,1
110,1019,34,0.159296001075558,1
110,1020,34,0.15248211824181,1
110,1021,34,0.129818964127571,1
110,1022,34,0.122635664553018,1
110,1023,34,0.125086371537142,1
111,1019,34,0.188175314953445,1
111,1020,34,0.170595692267281,1
111,1021,34,0.128566482624082,1
112,1021,34,0.126406829112677,1
103,1021,35,0.12820870142714,1
104,1020,35,0.132712339960631,1
104,1021,35,0.245589728462208,1
104,1022,35,0.225581138887033,1
105,1020,35,0.14457809800595,1
105,1021,35,0.272901341234323,1
105,1022,35,0.26061173377235,1
105,1023,35,0.161956748469408,1
106,1021,35,0.188312315238634,1
106,1022,35,0.201026890919556,1
107,1021,35,0.132744031507734,1
107,1022,35,0.147595955315366,1
108,1020,35,0.123471080114818,1
108,1021,35,0.131825000195496,1
108,1022,35,0.129781301709276,1
109,1020,35,0.138813404410333,1
109,1021,35,0.136319994509154,1
109,1022,35,0.131748167920024,1
110,1022,35,0.127127361344123,1
103,1021,36,0.124754205024313,1
103,1022,36,0.115524298077573,1
104,1020,36,0.134007924794628,1
104,1021,36,0.246033598551502,1
104,1022,36,0.22351163728684,1
104,1023,36,0.130135773606799,1
105,1020,36,0.145925842580607,1
105,1021,36,0.275809308604678,1
105,1022,36,0.260641458582787,1
105,1023,36,0.16255099736396,1
106,1021,36,0.176944836404724,1
106,1022,36,0.186913671048006,1
104,1021,37,0.213223814444072,1
104,1022,37,0.197162547794056,1
105,1020,37,0.141958098569356,1
105,1021,37,0.246506863698978,1
105,1022,37,0.236518055490521,1
105,1023,37,0.159368475910514,1
106,1021,37,0.160968162985046,1
106,1022,37,0.170578545150009,1
105,1021,38,0.188436266756008,1
105,1022,38,0.185008091649269,1
