x,y,z,signal,mito.p
551,925,33,0.149545379987185,1
552,925,33,0.114567934099294,1
545,921,34,0.225685552583284,1
546,921,34,0.232768183505057,1
550,924,34,0.163944871923753,1
550,925,34,0.156218705922134,1
550,926,34,0.130345908231455,1
551,924,34,0.144753526205741,1
551,925,34,0.119089155494111,1
552,923,34,0.125556350938932,1
573,936,34,0.123299243859236,1
573,939,34,0.128438986269964,1
574,939,34,0.136878465284012,1
575,938,34,0.12372211579599,1
576,939,34,0.180146365720312,1
577,939,34,0.17016770917057,1
544,921,35,0.202461642982132,1
545,920,35,0.218379161202593,1
545,921,35,0.253221443996432,1
545,922,35,0.212089042718839,1
546,920,35,0.207224254804655,1
546,921,35,0.264636077402841,1
546,922,35,0.195473085668034,1
547,921,35,0.201264712956786,1
549,924,35,0.153790740066755,1
549,925,35,0.150878756785006,1
549,926,35,0.119134413991143,1
550,923,35,0.144031180336892,1
550,924,35,0.160777648619577,1
550,925,35,0.146732239943946,1
551,923,35,0.133588585917751,1
551,924,35,0.13043759113528,1
564,917,35,0.115201199751763,1
569,941,35,0.115591485099579,1
570,941,35,0.16725950626289,1
570,942,35,0.147407207479836,1
571,941,35,0.139160503989578,1
573,939,35,0.114445325144674,1
576,938,35,0.135869011192639,1
576,939,35,0.163263085582299,1
577,938,35,0.120901438558346,1
577,939,35,0.157702002227429,1
577,940,35,0.117404227461598,1
544,920,36,0.201122330643717,1
544,921,36,0.216237302536106,1
545,919,36,0.196650736963315,1
545,920,36,0.23249062632107,1
545,921,36,0.271840763766521,1
545,922,36,0.213270804140445,1
546,920,36,0.215180187466984,1
546,921,36,0.268240599304939,1
546,922,36,0.194767239188813,1
547,921,36,0.188152220518712,1
548,924,36,0.11393849592836,1
549,923,36,0.114107458628575,1
549,924,36,0.131068206992839,1
549,925,36,0.11832409493134,1
550,923,36,0.117675837328125,1
550,924,36,0.145519540694679,1
550,925,36,0.121973227602826,1
565,917,36,0.17712928568407,1
566,917,36,0.137327210995938,1
567,944,36,0.12554024018589,1
568,944,36,0.11566951861541,1
570,941,36,0.12178418534564,1
576,939,36,0.127263113281488,1
577,939,36,0.124898106553129,1
543,921,37,0.184674217490832,1
544,918,37,0.225647819503791,1
544,919,37,0.215847158510684,1
544,920,37,0.222095445565487,1
544,921,37,0.232789099219533,1
544,922,37,0.193632903207632,1
545,919,37,0.231288208276047,1
545,920,37,0.25687705394436,1
545,921,37,0.27007983961604,1
545,922,37,0.200760498204782,1
546,920,37,0.220129556834638,1
546,921,37,0.240280269631824,1
546,925,37,0.143274705109624,1
546,926,37,0.125747607246975,1
547,924,37,0.122293581918798,1
547,925,37,0.114894530154383,1
549,924,37,0.119415645557403,1
550,924,37,0.136333325921759,1
565,917,37,0.145597597764242,1
567,944,37,0.123205346904554,1
568,944,37,0.116444919266755,1
543,918,38,0.202551665347815,1
543,919,38,0.16545920027164,1
543,920,38,0.183008956824972,1
543,921,38,0.219929114570914,1
544,917,38,0.232868640174245,1
544,918,38,0.240939020422876,1
544,919,38,0.236192943320581,1
544,920,38,0.249439798025802,1
544,921,38,0.245379440738291,1
544,922,38,0.194469626001587,1
545,918,38,0.219889803391342,1
545,919,38,0.280415099676099,2
545,920,38,0.292888685342767,1
545,921,38,0.253768856293873,1
545,922,38,0.184645305284167,1
545,925,38,0.168563240688338,1
545,926,38,0.140771261318393,1
546,919,38,0.233974252378621,1
546,920,38,0.235029907116327,1
546,921,38,0.207030525354698,1
546,923,38,0.160556455517504,1
546,924,38,0.15239791364806,1
546,925,38,0.143558021181212,1
546,926,38,0.120539770995538,1
547,920,38,0.150387814561275,1
547,923,38,0.139396253298347,1
547,924,38,0.126166957900718,1
550,924,38,0.118987179609176,1
542,921,39,0.210593262935309,1
543,918,39,0.194246666369576,1
543,919,39,0.178793651308094,1
543,920,39,0.211375458838486,1
543,921,39,0.263054373603087,1
543,922,39,0.235228323759055,1
544,917,39,0.234228538474881,1
544,918,39,0.254632524557828,1
544,919,39,0.269023454712626,2
544,920,39,0.275308226499099,1
544,921,39,0.249504311699167,1
544,922,39,0.19726736190376,1
544,925,39,0.143595035871864,1
544,926,39,0.120584852839577,1
544,929,39,0.113966277555865,1
545,917,39,0.204411326745009,1
545,918,39,0.25801573558919,2
545,919,39,0.330237038169012,2
545,920,39,0.314255241812511,2
545,921,39,0.226944970661,1
545,922,39,0.177194553076876,1
545,923,39,0.17185733617272,1
545,924,39,0.168490059241406,1
545,925,39,0.160348476059374,1
545,926,39,0.127858480978335,1
546,918,39,0.210867004414629,1
546,919,39,0.270673393675484,2
546,920,39,0.247726735059797,1
546,921,39,0.181222889065029,1
546,922,39,0.171882585773979,1
546,923,39,0.185830387782057,1
546,924,39,0.163850656993683,1
546,925,39,0.141589035134537,1
546,926,39,0.117753364438707,1
547,919,39,0.164027580855489,1
547,920,39,0.147852796991604,1
547,922,39,0.14452247586661,1
547,923,39,0.165117730034467,1
547,924,39,0.139491363270253,1
547,925,39,0.115577435298132,1
548,923,39,0.116797542196276,1
585,936,39,0.120287958041192,1
585,937,39,0.121840455212625,1
542,920,40,0.167221019463957,1
542,921,40,0.241576007565082,1
542,922,40,0.229962156689039,1
543,918,40,0.183018131003788,1
543,919,40,0.207854105165908,2
543,920,40,0.24197865862247,1
543,921,40,0.291869915750183,1
543,922,40,0.245685709922217,1
543,923,40,0.165458434775334,1
543,928,40,0.173720165546938,1
543,929,40,0.157679002007626,1
543,930,40,0.126631225522372,1
543,931,40,0.125377330794932,1
544,917,40,0.212663965775861,1
544,918,40,0.269203946964908,2
544,919,40,0.309271531102845,2
544,920,40,0.286735767350928,2
544,921,40,0.243583021112906,1
544,922,40,0.195095177806656,1
544,923,40,0.161682406369909,1
544,924,40,0.145146237588007,1
544,925,40,0.130024941518438,1
544,928,40,0.133645715495972,1
544,929,40,0.120838608976855,1
545,917,40,0.217590652899102,1
545,918,40,0.29883067965991,2
545,919,40,0.364603323582402,2
545,920,40,0.305699984426272,2
545,921,40,0.201705261969795,1
545,922,40,0.174574895169403,1
545,923,40,0.183156144099474,1
545,924,40,0.16731226662373,1
545,925,40,0.142115319733911,1
546,917,40,0.184951032732245,1
546,918,40,0.234806759054455,1
546,919,40,0.286780495888979,2
546,920,40,0.239103902014965,1
546,921,40,0.162451376852277,1
546,922,40,0.175943849880192,1
546,923,40,0.207336323463974,1
546,924,40,0.171118785335898,1
546,925,40,0.135486616345216,1
547,918,40,0.151563393128095,1
547,919,40,0.164068163936616,1
547,920,40,0.140680555894468,1
547,921,40,0.115704872767919,1
547,922,40,0.148664093531307,1
547,923,40,0.183718301033472,1
547,924,40,0.148402941522018,1
547,925,40,0.115365816788328,1
548,923,40,0.118936197555141,1
561,947,40,0.121840090129771,1
585,936,40,0.123268282477841,1
585,937,40,0.123864215464269,1
586,936,40,0.140227605841288,1
586,937,40,0.135643672633644,1
541,921,41,0.164497878232667,1
542,919,41,0.138432787869715,1
542,920,41,0.185518889669512,1
542,921,41,0.249109292051115,1
542,922,41,0.237153747177438,1
542,928,41,0.227037960796979,1
542,929,41,0.199716761655729,1
542,930,41,0.153399218147981,1
542,931,41,0.140430203271538,1
543,918,41,0.183221022855694,1
543,919,41,0.2408536381425,2
543,920,41,0.26217198012178,1
543,921,41,0.281773278554261,1
543,922,41,0.235273570479221,1
543,923,41,0.16938599611891,1
543,925,41,0.118767352623589,1
543,926,41,0.130465949829231,1
543,927,41,0.178903482362824,1
543,928,41,0.221424729478316,1
543,929,41,0.176781927013766,1
543,930,41,0.13058050340733,1
543,931,41,0.140444052866258,1
543,932,41,0.178560999315152,1
544,917,41,0.193222137889391,1
544,918,41,0.287491842164743,2
544,919,41,0.334880185460206,2
544,920,41,0.279892677888858,2
544,921,41,0.230317323421671,1
544,922,41,0.199586297531314,1
544,923,41,0.173281394840734,1
544,924,41,0.143091904591555,1
544,925,41,0.117281571399513,1
544,927,41,0.128328165958469,1
544,928,41,0.154746691854714,1
544,929,41,0.122658547004158,1
544,932,41,0.11921891300655,1
544,933,41,0.126806253308711,1
545,917,41,0.223017809730876,2
545,918,41,0.325116692257012,2
545,919,41,0.360064872632249,2
545,920,41,0.272629107193885,2
545,921,41,0.191809326128655,1
545,922,41,0.185452903887864,1
545,923,41,0.19306008820967,1
545,924,41,0.161912832535129,1
545,925,41,0.124843921191472,1
546,917,41,0.189674203829667,1
546,918,41,0.25270677138719,2
546,919,41,0.276076926113543,2
546,920,41,0.216051110280554,1
546,921,41,0.157234260430229,1
546,922,41,0.17735256329147,1
546,923,41,0.210984937953345,1
546,924,41,0.173082094933036,1
546,925,41,0.13206346996037,1
547,918,41,0.163699465584652,1
547,919,41,0.163226082668514,1
547,920,41,0.134455622365456,1
547,922,41,0.144520885989665,1
547,923,41,0.183991524330676,1
547,924,41,0.153612685625788,1
547,925,41,0.118863192761203,1
548,923,41,0.119768068280198,1
560,948,41,0.122820702675676,1
561,947,41,0.15002560526262,1
561,948,41,0.133422850078891,1
562,947,41,0.114436445387515,1
585,935,41,0.117205316190487,1
585,936,41,0.115163266465543,1
586,934,41,0.12795016388216,1
586,935,41,0.135611710218617,1
586,936,41,0.128715047791937,1
586,937,41,0.125649435289841,1
587,936,41,0.120079048210628,1
540,928,42,0.201993347672218,1
540,929,42,0.203760513561815,1
541,921,42,0.195517755321754,1
541,927,42,0.200547619570288,1
541,928,42,0.227249025794069,1
541,929,42,0.232461231262888,1
542,919,42,0.150012650709735,1
542,920,42,0.201853815360783,1
542,921,42,0.249577587361029,1
542,922,42,0.238489550009709,1
542,926,42,0.168977609727654,1
542,927,42,0.217793898056996,1
542,928,42,0.255401624585725,1
542,929,42,0.226494411311671,1
542,930,42,0.166915833751726,1
542,931,42,0.146567611130514,1
542,932,42,0.187004376471932,1
543,918,42,0.192245270386957,1
543,919,42,0.262027030451867,2
543,920,42,0.265830180980286,1
543,921,42,0.248394271393078,1
543,922,42,0.213061458565828,1
543,924,42,0.130207577160379,1
543,925,42,0.121338313189082,1
543,926,42,0.150216190289286,1
543,927,42,0.212266661415755,1
543,928,42,0.249333005402567,1
543,929,42,0.186485440637104,1
543,930,42,0.128186101620789,1
543,931,42,0.141712939544446,1
543,932,42,0.195562260099346,1
543,933,42,0.195157595197827,1
544,917,42,0.196698574594058,1
544,918,42,0.312385358095404,2
544,919,42,0.345195471955089,2
544,920,42,0.262647035352928,2
544,921,42,0.209927752223025,1
544,922,42,0.202319825958644,1
544,923,42,0.180941374853979,1
544,924,42,0.134789543631358,1
544,927,42,0.142700535772043,1
544,928,42,0.161850426920823,1
544,929,42,0.116900636883506,1
544,932,42,0.128394187070716,1
544,933,42,0.137685145292141,1
545,916,42,0.173980811150978,1
545,917,42,0.23938508647376,2
545,918,42,0.346368659818058,2
545,919,42,0.338696620293764,2
545,920,42,0.235886367938132,2
545,921,42,0.186833965217167,1
545,922,42,0.196545475332694,1
545,923,42,0.194403404682614,1
545,924,42,0.148835199621181,1
546,917,42,0.205780316786397,1
546,918,42,0.264173741187253,2
546,919,42,0.249822287088155,2
546,920,42,0.186087865409073,1
546,921,42,0.153933934983596,1
546,922,42,0.171602037265962,1
546,923,42,0.197145765759638,1
546,924,42,0.165928626160716,1
546,925,42,0.124339376687213,1
547,918,42,0.176525379759185,1
547,919,42,0.156646959886769,1
547,920,42,0.123781459425068,1
547,922,42,0.131693699913577,1
547,923,42,0.167953705421381,1
547,924,42,0.152942040199815,1
547,925,42,0.117941617645853,1
560,948,42,0.117458577699383,1
560,949,42,0.116308990676396,1
561,947,42,0.141860727439128,1
561,948,42,0.136139749571063,1
579,948,42,0.134370817151527,1
585,935,42,0.114480325991195,1
586,934,42,0.126973920553637,1
586,935,42,0.129874645151243,1
587,934,42,0.124470865398992,1
587,935,42,0.117124326681225,1
538,928,43,0.228546059182616,1
539,927,43,0.20469378310536,1
539,928,43,0.236800064329954,1
539,929,43,0.229147927709638,1
540,927,43,0.221157041308253,1
540,928,43,0.238619024877358,1
540,929,43,0.236108291205912,1
540,930,43,0.185257949643816,1
541,926,43,0.211806539251023,1
541,927,43,0.233646761281696,1
541,928,43,0.257184406599982,1
541,929,43,0.266775321605019,1
541,930,43,0.204552107404267,1
541,931,43,0.141365062692028,1
542,919,43,0.160433469703164,1
542,920,43,0.212130638610465,1
542,921,43,0.244612130794065,1
542,925,43,0.16410857036475,1
542,926,43,0.209721421526171,1
542,927,43,0.253438939162499,1
542,928,43,0.272835131692216,1
542,929,43,0.25025746585015,1
542,930,43,0.186524351403223,1
542,931,43,0.154264652941875,1
542,932,43,0.193567141186443,1
542,933,43,0.184748329310199,1
543,918,43,0.19990846548469,1
543,919,43,0.252387100129461,2
543,920,43,0.246631698481321,1
543,921,43,0.212120274968158,1
543,924,43,0.125909974902085,1
543,925,43,0.129251295620165,1
543,926,43,0.175525347160819,1
543,927,43,0.232601564401228,1
543,928,43,0.247797184273757,1
543,929,43,0.191321916964802,1
543,930,43,0.135898453358286,1
543,931,43,0.142944293349867,1
543,932,43,0.200402505024247,1
543,933,43,0.190922657644896,1
544,917,43,0.210461880215326,1
544,918,43,0.312662797510729,2
544,919,43,0.316457845555161,2
544,920,43,0.241297602446724,2
544,921,43,0.1956867769063,1
544,923,43,0.17443098186372,1
544,924,43,0.127195690722157,1
544,926,43,0.12324867399552,1
544,927,43,0.161085378134919,1
544,928,43,0.163884197508788,1
544,929,43,0.116559696605314,1
544,932,43,0.137536344586961,1
544,933,43,0.14442892044105,1
545,916,43,0.175348493960211,1
545,917,43,0.259483015356374,2
545,918,43,0.33499380866587,2
545,919,43,0.293894924349651,2
545,920,43,0.215658846419206,1
545,921,43,0.19092044359404,1
545,922,43,0.19865667881631,1
545,923,43,0.180005938367042,1
545,924,43,0.136131788409472,1
545,927,43,0.121563946169734,1
546,917,43,0.23739981302105,1
546,918,43,0.259996086311805,2
546,919,43,0.215971239573587,1
546,920,43,0.169366493628386,1
546,921,43,0.155680350034845,1
546,922,43,0.161441404578789,1
546,923,43,0.168994026679219,1
546,924,43,0.150893206999905,1
546,925,43,0.116951654268139,1
547,918,43,0.187950906766884,1
547,919,43,0.14952358100774,1
547,920,43,0.121205093277963,1
547,922,43,0.121270454885699,1
547,923,43,0.144984882743396,1
547,924,43,0.145183322939856,1
561,948,43,0.120629440055233,1
579,948,43,0.130149693862717,1
580,948,43,0.133512106948266,1
586,934,43,0.117607684603085,1
586,935,43,0.116009151661447,1
537,928,44,0.21935240143022,1
538,927,44,0.232113460402266,1
538,928,44,0.285071201520177,1
538,929,44,0.235445724710193,1
539,926,44,0.185054987130712,1
539,927,44,0.253525828881756,1
539,928,44,0.293135575567016,3
539,929,44,0.247710600753022,1
539,930,44,0.189435286543875,1
540,926,44,0.219962160457636,1
540,927,44,0.258345040323519,3
540,928,44,0.26942064130407,3
540,929,44,0.254372868210554,1
540,930,44,0.197778077485939,1
541,925,44,0.203181751246393,1
541,926,44,0.257449503859468,3
541,927,44,0.28396127898275,3
541,928,44,0.276971049353643,1
541,929,44,0.283575657273972,1
541,930,44,0.220388412355007,1
541,931,44,0.160156383593827,1
541,932,44,0.151212937141966,1
541,933,44,0.145137475599511,1
542,925,44,0.179775359102561,1
542,926,44,0.256155226257626,1
542,927,44,0.296388628672486,3
542,928,44,0.277761300633341,1
542,929,44,0.264713262984301,1
542,930,44,0.207603446344456,1
542,931,44,0.166114512217745,1
542,932,44,0.183336754120419,1
542,933,44,0.180152442583302,1
542,934,44,0.135019958019711,1
543,918,44,0.196773098603744,1
543,919,44,0.222017836016841,1
543,920,44,0.219683661124348,1
543,923,44,0.147197331946238,1
543,924,44,0.12364464756974,1
543,925,44,0.135998462506556,1
543,926,44,0.19654791314401,1
543,927,44,0.244574491929502,1
543,928,44,0.230437188366453,1
543,929,44,0.192091935588267,1
543,930,44,0.149237638694976,1
543,931,44,0.144272900516854,1
543,932,44,0.186851418532962,1
543,933,44,0.18212132263818,1
543,934,44,0.122173198791901,1
544,917,44,0.220077291102182,1
544,918,44,0.286509321766504,1
544,919,44,0.26946751323178,2
544,920,44,0.230934077907645,1
544,921,44,0.19796090155774,1
544,922,44,0.187469915995142,1
544,923,44,0.157608305479474,1
544,924,44,0.119945062803201,1
544,926,44,0.144734188591345,1
544,927,44,0.186972202073313,1
544,928,44,0.165366457449852,1
544,929,44,0.118314932529391,1
544,932,44,0.136422253038879,1
544,933,44,0.141490992722933,1
545,916,44,0.186491694153087,1
545,917,44,0.277515823633043,1
545,918,44,0.29848133069921,2
545,919,44,0.25114485272275,1
545,920,44,0.22146060181294,1
545,921,44,0.204407369717946,1
545,922,44,0.18972081666632,1
545,923,44,0.159475916261393,1
545,924,44,0.124930198513684,1
545,926,44,0.125089421745503,1
545,927,44,0.154262898188803,1
545,928,44,0.120751636819534,1
546,916,44,0.239716628812678,1
546,917,44,0.286246744756397,4
546,918,44,0.245825100911256,1
546,919,44,0.187608188181886,1
546,920,44,0.165906591643946,1
546,921,44,0.157348790454596,1
546,922,44,0.145615863683809,1
546,923,44,0.137330673394618,1
546,924,44,0.127664833966442,1
547,916,44,0.252815730953816,1
547,917,44,0.25083994965531,1
547,918,44,0.192610930307426,1
547,919,44,0.143492989325731,1
547,920,44,0.122562965957602,1
547,921,44,0.117222192439836,1
547,923,44,0.119289903956358,1
547,924,44,0.123248132259673,1
580,948,44,0.124550759659692,1
537,927,45,0.213439331096608,1
537,928,45,0.240124673674813,1
538,926,45,0.179746282019768,1
538,927,45,0.265549679579734,1
538,928,45,0.316554910486866,3
538,929,45,0.229463641940304,1
539,926,45,0.199832198498798,1
539,927,45,0.290460483950063,3
539,928,45,0.328967421325116,3
539,929,45,0.256788939431012,3
539,930,45,0.190793359430241,1
540,925,45,0.18243557653743,1
540,926,45,0.248204781614974,3
540,927,45,0.29353219686888,3
540,928,45,0.288108714419378,3
540,929,45,0.26366813676503,3
540,930,45,0.206137273602701,1
541,925,45,0.22319111809474,3
541,926,45,0.316321092584164,3
541,927,45,0.332701842062048,3
541,928,45,0.278797217343197,3
541,929,45,0.275161934266432,1
541,930,45,0.227580803670312,1
541,931,45,0.180945543864634,1
541,932,45,0.152179240795366,1
541,933,45,0.142329022749043,1
541,934,45,0.125563452389286,1
542,924,45,0.163663369489569,1
542,925,45,0.203937519861685,1
542,926,45,0.297433283817107,3
542,927,45,0.319384679465262,3
542,928,45,0.263323686980693,3
542,929,45,0.254578233204375,1
542,930,45,0.216853279748906,1
542,931,45,0.178845045552448,1
542,932,45,0.167958698812675,1
542,933,45,0.17573310285849,1
542,934,45,0.162432710519257,1
543,923,45,0.143660456363931,1
543,924,45,0.134771101058797,1
543,925,45,0.154996726502255,1
543,926,45,0.213462295985813,1
543,927,45,0.244330216169562,3
543,928,45,0.20754211242498,1
543,929,45,0.185566715523389,1
543,930,45,0.160888516038537,1
543,931,45,0.147515154235965,1
543,932,45,0.16552042819932,1
543,933,45,0.175648438966956,1
543,934,45,0.149348765204994,1
544,917,45,0.224577161038471,1
544,918,45,0.244582076231373,1
544,919,45,0.226272511597622,1
544,920,45,0.232713939259069,1
544,922,45,0.176269386017317,1
544,923,45,0.144943145529374,1
544,924,45,0.125857603177832,1
544,925,45,0.131196998802246,1
544,926,45,0.177893945833387,1
544,927,45,0.215655384020526,1
544,928,45,0.165214653643777,1
544,929,45,0.120108690583001,1
544,932,45,0.127537608480248,1
544,933,45,0.134388023153131,1
545,916,45,0.207228400261578,1
545,917,45,0.279885140694453,4
545,918,45,0.247111040491787,1
545,919,45,0.214412100249585,1
545,921,45,0.207284811450958,1
545,922,45,0.170888465162475,1
545,923,45,0.142255170020734,1
545,924,45,0.125061640117999,1
545,925,45,0.123502406579066,1
545,926,45,0.155137142078658,1
545,927,45,0.182377175057652,1
545,928,45,0.126528790339653,1
546,915,45,0.175246812496932,1
546,916,45,0.288712137492747,4
546,917,45,0.324483096852289,4
546,918,45,0.225624666184726,4
546,920,45,0.163042175125016,1
546,921,45,0.151913896221689,1
546,922,45,0.131518012622728,1
546,923,45,0.118961706247458,1
546,924,45,0.11431964242796,1
547,915,45,0.178143886265998,1
547,916,45,0.298065442444146,1
547,917,45,0.293382300915138,4
547,918,45,0.19268829254188,1
547,919,45,0.143239091866058,1
547,920,45,0.131256672183579,1
547,921,45,0.126700261512381,1
548,916,45,0.193236081699042,1
548,917,45,0.181166678082376,1
548,918,45,0.141422663344899,1
548,919,45,0.12339064411827,1
548,920,45,0.115579366704199,1
548,921,45,0.117477373577932,1
536,928,46,0.221379129452162,1
537,927,46,0.228938841226079,1
537,928,46,0.246824485781978,1
537,929,46,0.188400394421383,1
538,926,46,0.191638644005966,1
538,927,46,0.283095373114206,3
538,928,46,0.310071368751678,3
538,929,46,0.212005827381855,1
539,926,46,0.220931749856723,3
539,927,46,0.309103899188517,3
539,928,46,0.335203083579289,3
539,929,46,0.257988248383342,3
539,930,46,0.187242598922615,1
540,925,46,0.202365496645996,1
540,926,46,0.289290876254436,3
540,927,46,0.320190099348702,3
540,928,46,0.302246653933205,3
540,929,46,0.272596956348998,3
540,930,46,0.214430307284821,1
540,931,46,0.170304850778154,1
540,932,46,0.144671818307638,1
540,933,46,0.135047998738274,1
541,924,46,0.181228070886183,1
541,925,46,0.251749901003662,3
541,926,46,0.373388371183082,3
541,927,46,0.355113807395853,3
541,928,46,0.272109323424686,3
541,929,46,0.256219575054864,1
541,930,46,0.228899577153972,1
541,931,46,0.195337027532146,1
541,932,46,0.149290092857293,1
541,933,46,0.136702448240908,1
541,934,46,0.134990445192867,1
542,924,46,0.176598820297175,1
542,925,46,0.229506038658835,3
542,926,46,0.322460160981282,3
542,927,46,0.308903080065072,3
542,928,46,0.23652608731331,3
542,929,46,0.226033959394684,1
542,930,46,0.211101528929307,1
542,931,46,0.183127208339077,1
542,932,46,0.149033345395985,1
542,933,46,0.16095464314258,1
542,934,46,0.181069577820072,1
542,935,46,0.136463778269308,1
543,920,46,0.213598978295612,1
543,922,46,0.171698006949105,1
543,923,46,0.148821185150333,1
543,924,46,0.157106493208187,1
543,925,46,0.178531250950982,1
543,926,46,0.22994055791632,3
543,927,46,0.238426755758817,3
543,928,46,0.189804479524222,1
543,929,46,0.175941883143526,1
543,930,46,0.165977570816888,1
543,931,46,0.146894607599056,1
543,932,46,0.138296965271152,1
543,933,46,0.159271128334019,1
543,934,46,0.175999931317316,1
543,935,46,0.130826392597947,1
544,919,46,0.21233042136968,1
544,920,46,0.251979644110639,1
544,921,46,0.228234631731268,1
544,922,46,0.170451425655611,1
544,923,46,0.138440961014898,1
544,924,46,0.136747353431953,1
544,925,46,0.154354404439634,1
544,926,46,0.214070712450475,1
544,927,46,0.235831793939888,1
544,928,46,0.161485037868278,1
544,929,46,0.119356184159663,1
544,933,46,0.115254772716374,1
544,934,46,0.117257063740828,1
545,916,46,0.21408451493773,1
545,917,46,0.255577217661644,1
545,918,46,0.199343599871453,1
545,920,46,0.221599380404934,1
545,921,46,0.198850266943872,1
545,922,46,0.151288874375602,1
545,923,46,0.125569541029142,1
545,924,46,0.122649408155942,1
545,925,46,0.13598623811938,1
545,926,46,0.178292722301776,1
545,927,46,0.19010215159578,1
545,928,46,0.120475551743829,1
546,915,46,0.168532173315147,1
546,916,46,0.291080111991403,1
546,917,46,0.309945638927499,4
546,918,46,0.193670942485648,1
546,919,46,0.14507993383097,1
546,920,46,0.150662203768239,1
546,921,46,0.140218290340077,1
546,922,46,0.11816327004571,1
547,915,46,0.155226752254022,1
547,916,46,0.287764617941029,1
547,917,46,0.28297668585605,1
547,918,46,0.175657000748726,1
547,919,46,0.136336599890579,1
547,920,46,0.132465555728178,1
547,921,46,0.128004890979665,1
548,916,46,0.188611706732665,1
548,917,46,0.173637362400272,1
548,918,46,0.13354596543876,1
548,919,46,0.127748402609414,1
548,920,46,0.132424607564196,1
548,921,46,0.134750727080169,1
549,920,46,0.114987437852299,1
549,921,46,0.118479608450288,1
536,928,47,0.26159884714843,1
537,927,47,0.241063478345499,1
537,928,47,0.247302249692365,1
537,929,47,0.185375306116085,1
538,926,47,0.215596782334022,1
538,927,47,0.286590205283969,3
538,928,47,0.277753386579215,3
538,929,47,0.192391821710681,1
539,925,47,0.193436877268754,1
539,926,47,0.255359604726914,3
539,927,47,0.314710394139681,3
539,928,47,0.317590073477282,3
539,929,47,0.249238342951579,3
540,925,47,0.234525833686718,3
540,926,47,0.325867608803405,3
540,927,47,0.336224585404845,3
540,928,47,0.319697802785351,3
540,929,47,0.278890443016502,3
540,930,47,0.222760744294179,1
540,931,47,0.17551010789588,1
540,932,47,0.145166988426355,1
540,933,47,0.143819432281559,1
540,934,47,0.145232844662475,1
541,924,47,0.186553063403162,1
541,925,47,0.281810587666568,3
541,926,47,0.392696873166636,3
541,927,47,0.342795676363801,3
541,928,47,0.274674795970503,3
541,929,47,0.240408896565103,1
541,930,47,0.220019019167933,1
541,931,47,0.195743953591987,1
541,932,47,0.148725156582858,1
541,933,47,0.132266350035411,1
541,934,47,0.14053542957156,1
541,935,47,0.139640057983637,1
542,920,47,0.196571996835509,1
542,924,47,0.200358907065357,1
542,925,47,0.257844829706043,3
542,926,47,0.324646536202228,3
542,927,47,0.278243610414104,3
542,928,47,0.221381908792599,1
542,929,47,0.201211010446646,1
542,930,47,0.19870084206478,1
542,931,47,0.185775130725571,1
542,932,47,0.147661658452224,1
542,933,47,0.145651064737057,1
542,934,47,0.180634964347657,1
542,935,47,0.177711051100388,1
542,936,47,0.135124807460014,1
543,919,47,0.212163543174793,1
543,920,47,0.255510207292631,1
543,921,47,0.236556236090932,1
543,922,47,0.182914070613525,1
543,923,47,0.172249600034068,1
543,924,47,0.192194936060567,1
543,925,47,0.209778327343933,1
543,926,47,0.250230473272685,3
543,927,47,0.235573150403113,1
543,928,47,0.189247480857646,1
543,929,47,0.173786280874115,1
543,930,47,0.173695387020329,1
543,931,47,0.15848034709534,1
543,932,47,0.132723104016392,1
543,933,47,0.142072828800449,1
543,934,47,0.180765746447461,1
543,935,47,0.167174265304909,1
543,936,47,0.116666960303199,1
544,919,47,0.221404520375816,1
544,920,47,0.281474946978193,1
544,921,47,0.25698408210492,1
544,922,47,0.180240733749644,1
544,923,47,0.148919569091059,1
544,924,47,0.155631758684662,1
544,925,47,0.179877158334502,1
544,926,47,0.242662258601328,1
544,927,47,0.240208996037226,1
544,928,47,0.161795264079267,1
544,929,47,0.122940379190598,1
544,930,47,0.114472671028127,1
544,934,47,0.115664654769645,1
545,920,47,0.205810818870007,1
545,921,47,0.192859787268341,1
545,922,47,0.144786254117075,1
545,923,47,0.118803825578393,1
545,924,47,0.121023329124124,1
545,925,47,0.142767275273131,1
545,926,47,0.185518489256059,1
545,927,47,0.177427051970557,1
546,916,47,0.261671039338596,1
546,917,47,0.267778239535618,1
546,919,47,0.133300994843711,1
546,920,47,0.140644365584454,1
546,921,47,0.136044074309577,1
546,922,47,0.113875925437927,1
547,916,47,0.241496631486498,1
547,917,47,0.23905267264674,1
547,918,47,0.154925464684523,1
547,919,47,0.127952813677068,1
547,920,47,0.131885191758945,1
547,921,47,0.128635483283492,1
548,918,47,0.123913089459243,1
548,919,47,0.128541138807893,1
548,920,47,0.147115647601867,1
548,921,47,0.145342098650757,1
549,920,47,0.140741948698275,1
549,921,47,0.135704570809068,1
537,927,48,0.243216360158805,1
537,928,48,0.245195698070921,1
538,926,48,0.238902470494475,3
538,927,48,0.274404375567468,3
538,928,48,0.242434211363093,3
539,925,48,0.247461802676439,3
539,926,48,0.309632845359665,3
539,927,48,0.325155084841016,3
539,928,48,0.300346268132488,3
539,929,48,0.233026968364228,3
540,924,48,0.189568070710943,1
540,925,48,0.284184615474482,3
540,926,48,0.367548411635205,3
540,927,48,0.36201992664614,3
540,928,48,0.347131588768035,3
540,929,48,0.27851676305011,3
540,930,48,0.22729057457823,1
540,931,48,0.187334694016758,1
540,932,48,0.157957889977501,1
540,933,48,0.158855098756561,1
540,934,48,0.17790136525913,1
541,924,48,0.203895028928223,3
541,925,48,0.318832721297445,3
541,926,48,0.390855701449468,3
541,927,48,0.332825805356288,3
541,928,48,0.300107927913142,3
541,929,48,0.24017375965338,3
541,930,48,0.209868491032011,1
541,931,48,0.192241219144964,1
541,932,48,0.155742437673762,1
541,933,48,0.138418702737669,1
541,934,48,0.16228459287232,1
541,935,48,0.207849323758207,1
541,936,48,0.173637209301011,1
542,920,48,0.209122026141063,1
542,921,48,0.204100370368312,1
542,924,48,0.226885403271463,1
542,925,48,0.292117465478943,3
542,926,48,0.319656277554923,3
542,927,48,0.257317673618567,3
542,928,48,0.227740003348399,3
542,929,48,0.196758495289583,1
542,930,48,0.19371516461845,1
542,931,48,0.19316491409624,1
542,932,48,0.155659422543504,1
542,933,48,0.138868637913087,1
542,934,48,0.187968183429685,1
542,935,48,0.25080692732232,1
542,936,48,0.191412504620065,1
543,919,48,0.227609492116519,1
543,920,48,0.284880981576365,1
543,921,48,0.257290798809764,1
543,922,48,0.197339978061111,1
543,923,48,0.200088204017532,1
543,924,48,0.226609377080089,1
543,925,48,0.249699148174553,1
543,926,48,0.274250875892651,3
543,927,48,0.237937756718019,1
543,928,48,0.201674335918999,1
543,929,48,0.181791664597864,1
543,930,48,0.190436520382599,1
543,931,48,0.186152190652579,1
543,932,48,0.141956744229736,1
543,933,48,0.12803034078765,1
543,934,48,0.17029264994471,1
543,935,48,0.200931710286452,1
543,936,48,0.145832004510257,1
544,919,48,0.219022908266032,1
544,920,48,0.29105660536635,1
544,921,48,0.277441558714415,1
544,922,48,0.198142689265311,1
544,923,48,0.165838014951721,1
544,924,48,0.173130356530965,1
544,925,48,0.205368668203187,1
544,926,48,0.260781838828592,1
544,927,48,0.233886326295133,1
544,928,48,0.164590067541741,1
544,929,48,0.128387721571139,1
544,930,48,0.12454793321179,1
544,931,48,0.116143513928594,1
545,920,48,0.191152671619797,1
545,921,48,0.195066041839531,1
545,922,48,0.150559603709393,1
545,923,48,0.12073017936921,1
545,924,48,0.121243603630629,1
545,925,48,0.146188925995963,1
545,926,48,0.183606750556268,1
545,927,48,0.161226476769566,1
546,919,48,0.123049185657963,1
546,920,48,0.134337300190154,1
546,921,48,0.137650250437416,1
546,922,48,0.114524807215055,1
547,918,48,0.134672493357612,1
547,919,48,0.12007224118193,1
547,920,48,0.131480750617885,1
547,921,48,0.129434437667355,1
548,919,48,0.127679825917189,1
548,920,48,0.156728632454273,1
548,921,48,0.147398575036869,1
549,919,48,0.120398201286241,1
549,920,48,0.160460438726896,1
549,921,48,0.142516192484494,1
538,925,49,0.203889211156291,1
538,926,49,0.243166190708542,3
538,927,49,0.248854417111542,3
538,928,49,0.220121972532768,1
539,924,49,0.213959868585247,1
539,925,49,0.295783580391574,3
539,926,49,0.347705192816036,3
539,927,49,0.321915904883998,3
539,928,49,0.278062128905056,3
539,929,49,0.215163911837814,1
540,924,49,0.212208742787494,3
540,925,49,0.319547129558436,3
540,926,49,0.379482970133208,3
540,927,49,0.362799460977542,3
540,928,49,0.3447119844877,3
540,929,49,0.257402019534712,3
540,930,49,0.219254865423865,1
540,931,49,0.20106949962168,1
540,932,49,0.185606591992541,1
540,933,49,0.181013578821011,1
540,934,49,0.200975967749853,1
540,935,49,0.219518149045947,1
541,924,49,0.217960658483221,3
541,925,49,0.328482026005393,3
541,926,49,0.353983463772334,3
541,927,49,0.31160057128165,3
541,928,49,0.312243541071915,3
541,929,49,0.23725601748403,3
541,930,49,0.197909789958177,1
541,931,49,0.193284461065633,1
541,932,49,0.178318136779163,1
541,933,49,0.164949662376087,1
541,934,49,0.209172619558511,1
541,935,49,0.297796576587458,5
541,936,49,0.238483473146719,1
542,920,49,0.234527506001727,1
542,921,49,0.219351435727187,1
542,924,49,0.245863729032585,3
542,925,49,0.31202270127583,3
542,926,49,0.300379455341605,3
542,927,49,0.243744105089594,3
542,928,49,0.242821835139135,3
542,929,49,0.201482278784051,1
542,930,49,0.18960616887329,1
542,931,49,0.20093618549563,1
542,932,49,0.173775858347476,1
542,933,49,0.149611106677775,1
542,934,49,0.204985142776603,1
542,935,49,0.310803277435929,1
542,936,49,0.243517989257425,1
542,937,49,0.142203033833806,1
543,919,49,0.230948186593423,1
543,920,49,0.286465700253881,1
543,921,49,0.258829964568591,1
543,922,49,0.214545273053239,1
543,923,49,0.222256270451117,1
543,924,49,0.253944308047397,1
543,925,49,0.291649264383958,3
543,926,49,0.290469128169897,3
543,927,49,0.23990694297142,1
543,928,49,0.217180770845831,1
543,929,49,0.186094978636294,1
543,930,49,0.19523017602458,1
543,931,49,0.204682854173472,1
543,932,49,0.154696640173114,1
543,933,49,0.122868375430291,1
543,934,49,0.153312999710101,1
543,935,49,0.206518891176951,1
543,936,49,0.163489060092072,1
544,919,49,0.209190850147479,1
544,920,49,0.278578238291981,1
544,921,49,0.280322816152095,1
544,922,49,0.22027627303449,1
544,923,49,0.18310025109221,1
544,924,49,0.186863336721616,1
544,925,49,0.227587021855697,1
544,926,49,0.259836509773998,1
544,927,49,0.219585041646297,1
544,928,49,0.167959711623173,1
544,929,49,0.132189140900218,1
544,930,49,0.133723478143879,1
544,931,49,0.131381730726381,1
545,920,49,0.190598852707111,1
545,921,49,0.205413114096447,1
545,922,49,0.165811893862359,1
545,923,49,0.128415774066568,1
545,924,49,0.121026155572026,1
545,925,49,0.14382314199443,1
545,926,49,0.167899355183597,1
545,927,49,0.142758795929425,1
546,919,49,0.126693949112067,1
546,920,49,0.142320402082941,1
546,921,49,0.147753482678444,1
546,922,49,0.11933066369048,1
547,918,49,0.118939259540369,1
547,919,49,0.122472225203078,1
547,920,49,0.137005266803021,1
547,921,49,0.128960407023572,1
548,919,49,0.132741287497895,1
548,920,49,0.159908951633729,1
548,921,49,0.137652087628553,1
549,919,49,0.127585316565463,1
549,920,49,0.159909187171054,1
549,921,49,0.130594612093108,1
538,925,50,0.205845701947865,3
538,926,50,0.236586196438694,3
538,927,50,0.231010556877129,3
538,932,50,0.239422960875649,1
538,933,50,0.239233259113952,1
539,924,50,0.23386618785383,3
539,925,50,0.331886694487079,3
539,926,50,0.368563789490306,3
539,927,50,0.314958909571474,3
539,928,50,0.260311164591693,3
539,931,50,0.223215331331769,1
539,932,50,0.238180831237601,1
539,933,50,0.232531656923116,1
539,935,50,0.222843441449048,1
540,924,50,0.233174367622323,3
540,925,50,0.34772665026636,3
540,926,50,0.379536272229895,3
540,927,50,0.34385191994482,3
540,928,50,0.314008587125586,3
540,929,50,0.230467454912739,3
540,930,50,0.20832835957015,1
540,931,50,0.215253745773636,1
540,932,50,0.215203694092036,1
540,933,50,0.203858402874158,1
540,934,50,0.223012368818664,1
540,935,50,0.246040641117525,5
540,936,50,0.177142558212343,1
541,924,50,0.219470028770413,3
541,925,50,0.314353743521899,3
541,926,50,0.311494084856938,3
541,927,50,0.28407775219005,3
541,928,50,0.295541589343688,3
541,929,50,0.223832368462532,1
541,930,50,0.192876840170684,1
541,931,50,0.210173276330788,1
541,932,50,0.209128856723493,1
541,933,50,0.193573347594961,1
541,934,50,0.254920280507996,5
541,935,50,0.34995591683422,5
541,936,50,0.273785783890359,5
541,937,50,0.15539668065727,1
542,920,50,0.247496403109507,1
542,921,50,0.219398189886235,1
542,924,50,0.247243318253606,3
542,925,50,0.312177143099948,3
542,926,50,0.280487174097602,3
542,927,50,0.239539551851611,3
542,928,50,0.250078221945691,1
542,929,50,0.203873830568957,1
542,930,50,0.192730006202169,1
542,931,50,0.219659283011192,1
542,932,50,0.198280690584132,1
542,933,50,0.160946046030212,1
542,934,50,0.210063468829791,1
542,935,50,0.31858792735539,5
542,936,50,0.273575331290314,1
542,937,50,0.168482781138058,1
543,919,50,0.211059956591413,1
543,920,50,0.252309914548001,1
543,921,50,0.237172401733592,1
543,922,50,0.225537164068423,1
543,923,50,0.232312089028587,1
543,924,50,0.272808374652076,3
543,925,50,0.330428765551705,3
543,926,50,0.304665457386634,3
543,927,50,0.252000065196732,3
543,928,50,0.234673609804533,1
543,929,50,0.188050433063637,1
543,930,50,0.191122428627244,1
543,931,50,0.2128033567649,1
543,932,50,0.166073516946298,1
543,933,50,0.120553067077544,1
543,934,50,0.133339740733703,1
543,935,50,0.185041855924833,1
543,936,50,0.169804675491277,1
543,937,50,0.120290431183107,1
544,920,50,0.238513127295959,1
544,921,50,0.253387992439063,1
544,922,50,0.227851341842009,1
544,923,50,0.195424270557392,1
544,924,50,0.206007610305191,1
544,925,50,0.253337139930558,3
544,926,50,0.257028575105646,3
544,927,50,0.218314906620285,1
544,928,50,0.18386358045564,1
544,929,50,0.144094528100498,1
544,930,50,0.146378192013608,1
544,931,50,0.152902693689644,1
545,921,50,0.203570364279201,1
545,922,50,0.171069675803599,1
545,923,50,0.135280309202095,1
545,924,50,0.128584595444388,1
545,925,50,0.14617281524292,1
545,926,50,0.154564173981435,1
545,927,50,0.137783517456001,1
546,920,50,0.152862334368975,1
546,921,50,0.151071932722249,1
546,922,50,0.11880543900907,1
547,919,50,0.128382551526852,1
547,920,50,0.142585157813305,1
547,921,50,0.125556468707594,1
548,919,50,0.138803488288943,1
548,920,50,0.157895637462457,1
548,921,50,0.125609641258753,1
549,919,50,0.129507595560555,1
549,920,50,0.148434114887005,1
549,921,50,0.116435756864806,1
537,932,51,0.180359197247341,1
537,933,51,0.195994153115655,1
538,925,51,0.204295560149685,3
538,926,51,0.232020988448402,3
538,927,51,0.231124651157445,3
538,929,51,0.260833162411748,6
538,930,51,0.272447225271384,6
538,931,51,0.251025058439166,1
538,932,51,0.278037256163517,1
538,933,51,0.262007198209087,1
538,934,51,0.222320336603565,1
539,924,51,0.2415466125069,3
539,925,51,0.359033124933049,3
539,926,51,0.379622431783444,3
539,927,51,0.313599953420139,3
539,928,51,0.257930471077477,3
539,930,51,0.264191382932909,6
539,931,51,0.281391119244163,6
539,932,51,0.303356529363166,6
539,933,51,0.259226609424188,1
539,934,51,0.220296128831003,1
539,935,51,0.201689009894358,1
540,924,51,0.254490448443282,3
540,925,51,0.380525411226971,3
540,926,51,0.379010788457427,3
540,927,51,0.316062920122038,3
540,928,51,0.270677868884662,3
540,930,51,0.204981963022713,1
540,931,51,0.233764694820412,1
540,932,51,0.251436235947725,1
540,933,51,0.23002718854452,1
540,934,51,0.248531613207388,1
540,935,51,0.259320777246793,5
540,936,51,0.185328610841369,1
541,924,51,0.219596842066288,3
541,925,51,0.30195854467705,3
541,926,51,0.285843175103441,3
541,927,51,0.258058886027163,3
541,928,51,0.256535736806447,1
541,929,51,0.199214808062047,1
541,930,51,0.188595701971419,1
541,931,51,0.224952489766139,1
541,932,51,0.233017593978686,1
541,933,51,0.220464867770759,1
541,934,51,0.285507228216542,5
541,935,51,0.352743218432887,5
541,936,51,0.278316768307303,5
541,937,51,0.154680670742467,1
542,924,51,0.235074164579727,3
542,925,51,0.30289683116562,3
542,926,51,0.278847080594937,3
542,927,51,0.248587623983315,3
542,928,51,0.244254066952333,1
542,929,51,0.194159376236865,1
542,930,51,0.195364502961128,1
542,931,51,0.236004160154452,1
542,932,51,0.220031879505888,1
542,933,51,0.1794306384503,1
542,934,51,0.216689157340723,1
542,935,51,0.305418729306279,5
542,936,51,0.296004325972729,1
542,937,51,0.190233086794845,1
543,920,51,0.211858687214817,1
543,921,51,0.216238668652592,1
543,923,51,0.227700480185234,1
543,924,51,0.279970664297224,3
543,925,51,0.357781762231854,3
543,926,51,0.328910515507354,3
543,927,51,0.277853584157345,3
543,928,51,0.243619859150564,1
543,929,51,0.18118271817422,1
543,930,51,0.179836881451897,1
543,931,51,0.210246340009058,1
543,932,51,0.177420162503796,1
543,933,51,0.129795398618187,1
543,934,51,0.132420909628191,1
543,935,51,0.174781767602105,1
543,936,51,0.183249204896651,1
543,937,51,0.136557710554588,1
544,921,51,0.219617851995694,1
544,922,51,0.220130734521264,1
544,923,51,0.208740596996673,1
544,924,51,0.24286453805619,1
544,925,51,0.296210609562118,3
544,926,51,0.274303730468421,3
544,927,51,0.235416470974406,1
544,928,51,0.202594580248462,1
544,929,51,0.157341512351248,1
544,930,51,0.159397176133587,1
544,931,51,0.178421313904456,1
544,932,51,0.138117768474158,1
545,921,51,0.197638545174504,1
545,922,51,0.171975163719639,1
545,923,51,0.152515493880787,1
545,924,51,0.159059863130202,1
545,925,51,0.170671723715848,1
545,926,51,0.158286123017,1
545,927,51,0.145872340277194,1
545,928,51,0.13700806969719,1
545,929,51,0.122355045383803,1
545,930,51,0.120185098891288,1
545,931,51,0.121267416454204,1
546,920,51,0.17188746139661,1
546,921,51,0.153716934445911,1
546,922,51,0.120263261952648,1
547,919,51,0.143275246845472,1
547,920,51,0.148059257233987,1
547,921,51,0.120337997945926,1
548,918,51,0.124417539748572,1
548,919,51,0.146395021155491,1
548,920,51,0.14994678269675,1
549,919,51,0.127695241835122,1
549,920,51,0.131567381246085,1
537,929,52,0.253780703821329,6
537,930,52,0.238212746545162,6
537,931,52,0.17140709479878,1
537,932,52,0.179582512917574,1
537,933,52,0.200034689937252,1
538,925,52,0.185880368802459,3
538,926,52,0.213040071776702,3
538,927,52,0.22328700533982,3
538,928,52,0.257963893823919,6
538,929,52,0.334853663957391,6
538,930,52,0.341338194949345,6
538,931,52,0.278749214836327,6
538,932,52,0.28790365562408,6
538,933,52,0.253006327757348,1
538,934,52,0.204367328372666,1
539,924,52,0.223487141405022,3
539,925,52,0.345451713011148,3
539,926,52,0.361350364691862,3
539,927,52,0.296810334699481,3
539,928,52,0.259749219641288,3
539,929,52,0.283599422990082,6
539,930,52,0.308210623882788,6
539,931,52,0.325546265230668,6
539,932,52,0.350052581352472,6
539,933,52,0.271783457535305,6
539,934,52,0.228931845767521,1
539,935,52,0.199953288237671,1
540,924,52,0.252923795478607,3
540,925,52,0.376038825595822,3
540,926,52,0.357238730928661,3
540,927,52,0.276940688592428,3
540,930,52,0.20068835312208,6
540,931,52,0.243599744262994,6
540,932,52,0.275634987430315,6
540,933,52,0.251773313413785,1
540,934,52,0.278525195286352,1
540,935,52,0.273061836367698,5
540,936,52,0.183847316603337,1
541,924,52,0.209865523261713,1
541,925,52,0.280564477447725,3
541,926,52,0.265155790510842,3
541,927,52,0.233146809755278,1
541,928,52,0.206303445185612,1
541,929,52,0.167600964723198,1
541,930,52,0.174929555496786,1
541,931,52,0.223146413110422,1
541,932,52,0.238243531273563,1
541,933,52,0.239338520744573,1
541,934,52,0.293126648702392,5
541,935,52,0.324215667773284,5
541,936,52,0.253729521560569,5
541,937,52,0.143651317515714,1
542,924,52,0.213771250295246,1
542,925,52,0.284448770584667,3
542,926,52,0.284665347155166,3
542,927,52,0.261824703889541,3
542,928,52,0.221434716260903,1
542,929,52,0.174429827730827,1
542,930,52,0.189051443141902,1
542,931,52,0.239436103858393,1
542,932,52,0.22865593734481,1
542,933,52,0.202102165916449,1
542,934,52,0.230843608021045,1
542,935,52,0.295436233498137,5
542,936,52,0.294177875338385,1
542,937,52,0.189570237654335,1
543,923,52,0.213609789458838,1
543,924,52,0.27068130772961,3
543,925,52,0.361880629872031,3
543,926,52,0.353933553413129,3
543,927,52,0.30721015554037,3
543,928,52,0.236100589135379,3
543,929,52,0.16798984862393,1
543,930,52,0.165596200556829,1
543,931,52,0.200682653118811,1
543,932,52,0.178523466442385,1
543,933,52,0.14193998574905,1
543,934,52,0.148179204616833,1
543,935,52,0.187898005083649,1
543,936,52,0.199448037121436,1
543,937,52,0.148041379951006,1
544,923,52,0.216925707476398,1
544,924,52,0.272778673395371,3
544,925,52,0.332582518853114,3
544,926,52,0.309678327617157,3
544,927,52,0.267417938089297,3
544,928,52,0.212970753141903,1
544,929,52,0.163991684967132,1
544,930,52,0.167065953465927,1
544,931,52,0.19428889821198,1
544,932,52,0.151125022835344,1
545,922,52,0.174197163961018,1
545,923,52,0.175551750894971,1
545,924,52,0.193909341589325,1
545,925,52,0.20037661947221,3
545,926,52,0.180743452839633,3
545,927,52,0.16935058308207,1
545,928,52,0.164020173206612,1
545,929,52,0.157626583175908,1
545,930,52,0.159693906055844,1
545,931,52,0.162901747771746,1
545,932,52,0.117247936669478,1
546,921,52,0.154193438231608,1
546,922,52,0.126098098563703,1
546,923,52,0.11544989183655,1
546,924,52,0.114919968185502,1
546,929,52,0.117450169016874,1
547,920,52,0.151105638113482,1
547,921,52,0.119813668306352,1
548,919,52,0.149152221084001,1
548,920,52,0.140751970811461,1
549,919,52,0.122118766116053,1
549,920,52,0.118860860941684,1
537,929,53,0.264242164780217,6
537,930,53,0.258694412837952,6
537,931,53,0.18664234382627,1
537,932,53,0.176914793618898,1
538,926,53,0.188031554747024,3
538,928,53,0.263761809959253,6
538,929,53,0.36599963595351,6
538,930,53,0.359911396511165,6
538,931,53,0.283892666959926,6
538,932,53,0.265679507753371,6
538,933,53,0.223401358711193,1
538,934,53,0.193203306680244,1
539,925,53,0.295832289510421,3
539,926,53,0.32294560340847,3
539,927,53,0.269430133458275,3
539,928,53,0.252298067020544,1
539,929,53,0.299834398417415,6
539,930,53,0.313777925423042,6
539,931,53,0.329922006996589,6
539,932,53,0.345421658448455,6
539,933,53,0.270654150276017,6
539,934,53,0.258969496880025,1
539,935,53,0.226205548336075,1
540,924,53,0.237462324627151,3
540,925,53,0.335256055923721,3
540,926,53,0.330349413026853,3
540,927,53,0.248814846840912,3
540,929,53,0.182567088802942,1
540,930,53,0.19694590056236,6
540,931,53,0.245181448062748,6
540,932,53,0.285920525561029,6
540,933,53,0.265507424183597,1
540,934,53,0.290050766772919,1
540,935,53,0.270200411172798,1
541,924,53,0.206037806190279,1
541,925,53,0.263070201711339,3
541,926,53,0.269622732329071,3
541,927,53,0.233055491934307,1
541,929,53,0.146250142146776,1
541,930,53,0.163607028961387,1
541,931,53,0.211468166329676,1
541,932,53,0.242981929859057,1
541,933,53,0.251727878263758,1
541,934,53,0.270900993392801,1
541,935,53,0.268641648708516,5
541,936,53,0.205967945819632,1
542,924,53,0.202834616336549,1
542,925,53,0.2679818379995,3
542,926,53,0.302303441982305,3
542,927,53,0.283219948805491,3
542,928,53,0.200938941282335,1
542,929,53,0.158645529421485,1
542,930,53,0.178517283587599,1
542,931,53,0.225298093683369,1
542,932,53,0.235260615926337,1
542,933,53,0.229544501904037,1
542,934,53,0.242138329375207,1
542,935,53,0.2751724863386,1
542,936,53,0.254752931238458,1
543,924,53,0.25121136846338,3
543,925,53,0.338368328369934,3
543,926,53,0.369256575424846,3
543,927,53,0.33038530891521,3
543,928,53,0.224705787971749,3
543,929,53,0.163229804158251,1
543,930,53,0.165570491657786,1
543,931,53,0.19580072986422,1
543,932,53,0.187123546581604,1
543,933,53,0.166761886555991,1
543,934,53,0.179086989492868,1
543,935,53,0.21805346018934,1
543,936,53,0.212338924267119,1
543,937,53,0.152664765660618,1
544,923,53,0.217611050431462,1
544,924,53,0.274492654956944,3
544,925,53,0.335812559961915,3
544,926,53,0.344294871438546,3
544,927,53,0.303269757412572,3
544,928,53,0.218259932208589,1
544,929,53,0.170360084280908,1
544,930,53,0.178978748315084,1
544,931,53,0.200541778244623,1
544,932,53,0.160576358421482,1
544,933,53,0.11830917364179,1
544,935,53,0.132462693949677,1
544,936,53,0.134056645690341,1
545,922,53,0.183438035170245,1
545,923,53,0.196043922152464,1
545,924,53,0.216311708777129,1
545,925,53,0.22079139316465,3
545,926,53,0.21297063537324,3
545,927,53,0.200631447304318,1
545,928,53,0.186051757537124,1
545,929,53,0.191064509998983,1
545,930,53,0.200924903257754,1
545,931,53,0.192095739516069,1
545,932,53,0.137974667772247,1
546,921,53,0.156974156562037,1
546,922,53,0.139850899220268,1
546,923,53,0.139640882364275,1
546,924,53,0.143813190542442,1
546,925,53,0.131024620810816,1
546,926,53,0.117412000193329,1
546,927,53,0.116831918868886,1
546,928,53,0.137818753839847,1
546,929,53,0.165877043486503,1
546,930,53,0.154136084892928,1
546,931,53,0.117743636747177,1
547,920,53,0.152084872766034,1
547,921,53,0.124021589728085,1
548,919,53,0.150211856402503,1
548,920,53,0.135609507944627,1
549,919,53,0.117479034116074,1
553,920,53,0.126103457037851,1
553,921,53,0.1386459138184,1
554,920,53,0.136826529303811,1
554,921,53,0.126663870995642,1
555,920,53,0.114392929866689,1
557,916,53,0.12557401623832,1
557,917,53,0.114912030577644,1
561,915,53,0.120114908768386,1
562,914,53,0.120237388177477,1
562,915,53,0.125876858354165,1
537,929,54,0.24924677518782,6
537,930,54,0.262799498663514,6
537,931,54,0.221389634416865,1
538,928,54,0.241130842020499,6
538,929,54,0.341239198611573,6
538,930,54,0.337376080280165,6
538,931,54,0.286579841641661,6
538,932,54,0.230483400789653,1
538,933,54,0.190846626196329,1
538,934,54,0.185739423267074,1
539,926,54,0.263080541799914,3
539,929,54,0.274208055206934,6
539,930,54,0.281261620822781,6
539,931,54,0.300368314426124,6
539,932,54,0.296486565092294,6
539,933,54,0.25242021667738,1
539,934,54,0.273011172289053,1
539,935,54,0.246841656452983,1
540,925,54,0.269004611726612,3
540,926,54,0.285681172531185,3
540,930,54,0.183061681855213,1
540,931,54,0.235344396552902,1
540,932,54,0.281287082407632,1
540,933,54,0.266685935190115,1
540,934,54,0.269685691456091,1
540,935,54,0.241367769015894,1
541,925,54,0.237038663640357,1
541,926,54,0.266297416372237,3
541,932,54,0.252184443814879,1
541,933,54,0.263359064686935,1
541,934,54,0.237270385260866,1
541,935,54,0.206186336027535,1
542,925,54,0.244718428788917,3
542,926,54,0.303168547023944,3
542,927,54,0.283356372024233,3
542,928,54,0.180181778757152,1
542,929,54,0.140984033961091,1
542,930,54,0.152328194599807,1
542,931,54,0.189345982567035,1
542,932,54,0.230984035374315,1
542,933,54,0.248703461239836,1
542,934,54,0.234421325775537,1
542,935,54,0.231002784145399,1
542,936,54,0.190291606043285,1
543,924,54,0.2298266049584,3
543,925,54,0.299270757598269,3
543,926,54,0.360266704566193,3
543,927,54,0.32402299824129,3
543,928,54,0.204039483969754,3
543,929,54,0.155983651448474,1
543,930,54,0.162050280341235,1
543,931,54,0.178552590632643,1
543,932,54,0.185744451988967,1
543,933,54,0.189453634901506,1
543,934,54,0.199850711732557,1
543,935,54,0.231828271808943,1
543,936,54,0.204127362945777,1
543,937,54,0.142801333970352,1
544,924,54,0.254185333392249,3
544,925,54,0.306842929296688,3
544,926,54,0.353455648180347,3
544,927,54,0.314959309984927,3
544,928,54,0.210783200234331,3
544,929,54,0.178388868637913,1
544,930,54,0.199141979921103,1
544,931,54,0.19404210220266,1
544,932,54,0.155257124792103,1
544,933,54,0.129113541615535,1
544,934,54,0.125017500423261,1
544,935,54,0.154120268561542,1
544,936,54,0.153456595040394,1
544,937,54,0.117180561217611,1
545,923,54,0.206971688130869,1
545,924,54,0.220805124990708,1
545,925,54,0.223399144660336,3
545,926,54,0.236396376908335,3
545,927,54,0.224316538988164,3
545,928,54,0.197848126286446,1
545,929,54,0.227504607345618,1
545,930,54,0.253251357236729,1
545,931,54,0.207766767925733,1
545,932,54,0.142091483356603,1
546,922,54,0.147892155278641,1
546,923,54,0.160755166581889,1
546,924,54,0.166653197857289,1
546,925,54,0.147116460205639,1
546,926,54,0.135352183416872,1
546,927,54,0.137361434569286,1
546,928,54,0.165159102165634,1
546,929,54,0.21998446584233,1
546,930,54,0.212343187492704,1
546,931,54,0.142878295791353,1
547,921,54,0.125732509304431,1
547,923,54,0.116416678341467,1
547,924,54,0.118885050624979,1
547,929,54,0.126564745112341,1
548,920,54,0.127874085326128,1
548,941,54,0.12101103407575,1
549,942,54,0.123032945359392,1
549,944,54,0.113973025700231,1
549,945,54,0.197421120669634,1
550,943,54,0.120049853359172,1
550,944,54,0.133571721445268,1
550,945,54,0.158843180567907,1
550,946,54,0.156465655030715,1
551,944,54,0.124935651202762,1
552,920,54,0.115397272798105,1
552,921,54,0.130769204135395,1
553,920,54,0.151226986943412,1
553,921,54,0.151403345515638,1
554,919,54,0.126630848662652,1
554,920,54,0.165442971749936,1
554,921,54,0.134589325128092,1
555,919,54,0.116521103814584,1
555,920,54,0.137239838425164,1
556,916,54,0.118466418360078,1
556,917,54,0.117117472545063,1
557,916,54,0.179265491454753,1
557,917,54,0.162521496313982,1
558,916,54,0.14825608399977,1
558,917,54,0.124167198902509,1
560,915,54,0.128891123719372,1
560,916,54,0.114840026817338,1
561,915,54,0.151062099038923,1
561,916,54,0.121018759700016,1
562,915,54,0.159724290370791,1
563,915,54,0.145252347152999,1
537,930,55,0.23731598528702,1
537,931,55,0.234803225994578,1
538,929,55,0.26834913490438,6
538,930,55,0.272848392443623,6
538,931,55,0.253844393114057,1
538,932,55,0.180764462769039,1
539,930,55,0.218703378330698,1
539,931,55,0.231472681109125,1
539,932,55,0.218532401786353,1
539,933,55,0.212484062366892,1
539,934,55,0.247877973576292,1
540,932,55,0.248355572610552,1
540,933,55,0.245729190112445,1
540,934,55,0.232140735624521,1
541,926,55,0.257236201257788,1
542,925,55,0.231947854108935,1
542,926,55,0.29118000337101,3
542,927,55,0.266553845858156,1
542,929,55,0.12526055138911,1
542,930,55,0.123733869108517,1
542,931,55,0.147154581921719,1
542,932,55,0.209407827131431,1
542,933,55,0.240426797401816,1
542,934,55,0.206660472663114,1
543,925,55,0.267895772660881,3
543,926,55,0.337368048457377,3
543,927,55,0.299704523136313,3
543,928,55,0.185116462372583,1
543,929,55,0.146359678779849,1
543,930,55,0.150101813364181,1
543,931,55,0.147670585316848,1
543,932,55,0.169535479882333,1
543,933,55,0.193595582318458,1
543,934,55,0.195690404181108,1
543,935,55,0.215034036556712,1
543,936,55,0.18134171764558,1
544,925,55,0.274086070426226,3
544,926,55,0.335696487168068,3
544,927,55,0.296026066067843,3
544,928,55,0.197674629492721,1
544,929,55,0.195058928612311,1
544,930,55,0.222213850178853,1
544,931,55,0.176561440523669,1
544,932,55,0.14247990795955,1
544,933,55,0.138641721254012,1
544,934,55,0.138058695713004,1
544,935,55,0.169809456898978,1
544,936,55,0.169374749211633,1
544,937,55,0.127329134393735,1
545,923,55,0.210608973274899,1
545,924,55,0.219704317747766,1
545,925,55,0.225893767578739,1
545,926,55,0.248098271636529,3
545,927,55,0.229323662107952,1
545,928,55,0.203195930593368,1
545,929,55,0.270592392389356,1
545,930,55,0.30578444811108,1
545,931,55,0.205597586929525,1
545,932,55,0.130953700522205,1
546,922,55,0.154228215317671,1
546,923,55,0.180756548714913,1
546,924,55,0.189472890077839,1
546,925,55,0.171387062349274,1
546,926,55,0.160861134824486,1
546,927,55,0.158574479587346,1
546,928,55,0.183168015180663,1
546,929,55,0.254995581790854,1
546,930,55,0.254491414146315,1
546,931,55,0.157405083875313,1
547,921,55,0.131278070749571,1
547,922,55,0.128834394554603,1
547,923,55,0.142035802332931,1
547,924,55,0.140971126515671,1
547,925,55,0.126540873404435,1
547,926,55,0.1169835695757,1
547,927,55,0.117866858098843,1
547,928,55,0.130225819526214,1
547,929,55,0.1456103521104,1
547,930,55,0.125637929291507,1
548,920,55,0.1288816551189,1
548,921,55,0.114509167536663,1
548,940,55,0.129378120692906,1
548,941,55,0.126245285838205,1
549,940,55,0.12234463463403,1
549,941,55,0.151674637406776,1
549,942,55,0.146341565959543,1
549,944,55,0.130172811851183,1
549,945,55,0.243242528355632,1
550,942,55,0.1412946370318,1
550,943,55,0.13888779887449,1
550,944,55,0.147103658752016,1
550,945,55,0.197514876301921,1
550,946,55,0.185096347485013,1
551,944,55,0.125476515562563,1
551,945,55,0.11487952642677,1
552,919,55,0.12447823771727,1
552,920,55,0.142582237150473,1
552,921,55,0.144677753848232,1
552,922,55,0.116387542374342,1
553,919,55,0.149541352298924,1
553,920,55,0.168121561096168,1
553,921,55,0.14404510059281,1
554,918,55,0.118362475738478,1
554,919,55,0.16922951689693,1
554,920,55,0.177880437767788,1
554,921,55,0.123763181728635,1
555,918,55,0.117091092364643,1
555,919,55,0.146011472175175,1
555,920,55,0.146002109566499,1
556,916,55,0.142525260671513,1
556,917,55,0.144782485519872,1
557,916,55,0.204006767835287,1
557,917,55,0.184334784651521,1
558,915,55,0.12048851807358,1
558,916,55,0.167641488919994,1
558,917,55,0.138193717484661,1
559,916,55,0.128318532481869,1
560,915,55,0.151577501813873,1
560,916,55,0.139792273980032,1
561,915,55,0.171580332501447,1
561,916,55,0.136486413406257,1
562,914,55,0.16938782153318,1
562,915,55,0.179453002719326,1
563,915,55,0.167829848118938,1
564,915,55,0.123128750166407,1
538,930,56,0.201165622404084,1
538,931,56,0.20621323439007,1
542,926,56,0.268475100265884,1
543,925,56,0.249186642508702,1
543,926,56,0.30399059584254,3
543,927,56,0.266197972513548,1
543,928,56,0.172449465231346,1
543,929,56,0.136592275657057,1
543,930,56,0.13035732001486,1
543,931,56,0.123182499784012,1
543,932,56,0.15047458651187,1
543,933,56,0.180129100834377,1
543,934,56,0.173433834597588,1
543,935,56,0.176043682375467,1
543,936,56,0.147853138520726,1
544,926,56,0.295490477744125,3
544,927,56,0.253955637392737,1
544,928,56,0.186797763130287,1
544,929,56,0.213073376754482,1
544,930,56,0.223555282353195,1
544,931,56,0.154297981473388,1
544,932,56,0.127605301907504,1
544,933,56,0.139015719195793,1
544,934,56,0.14345836533893,1
544,935,56,0.165777658512145,1
544,936,56,0.161578228210984,1
544,937,56,0.130026354742389,1
545,924,56,0.213618928307055,1
545,925,56,0.227612459886816,1
545,926,56,0.246893027143604,1
545,927,56,0.213875051594451,1
545,928,56,0.203001423870238,1
545,929,56,0.302882840248505,1
545,930,56,0.322195252151657,1
545,931,56,0.189694577808295,1
545,932,56,0.114186905368357,1
545,935,56,0.115639051862398,1
545,936,56,0.120394515127102,1
545,937,56,0.114860848316883,1
546,923,56,0.185511588012431,1
546,924,56,0.19377280060192,1
546,925,56,0.190736630265472,1
546,926,56,0.186663459747472,1
546,927,56,0.169622746461311,1
546,928,56,0.180033790655744,1
546,929,56,0.251206681270609,1
546,930,56,0.254925603651545,1
546,931,56,0.159695896346241,1
547,922,56,0.139466054784663,1
547,923,56,0.15398183149867,1
547,924,56,0.146805810027465,1
547,925,56,0.134295880951522,1
547,926,56,0.128428599073924,1
547,927,56,0.129092472801798,1
547,928,56,0.134801296943884,1
547,929,56,0.145384989997672,1
547,930,56,0.135871390119624,1
548,923,56,0.114542613836838,1
548,940,56,0.125355979336405,1
548,941,56,0.11590378403903,1
549,940,56,0.153814317353005,1
549,941,56,0.171378053046586,1
549,942,56,0.145595171729793,1
549,944,56,0.136794166475332,1
549,945,56,0.236373883093781,1
550,940,56,0.117454750217848,1
550,941,56,0.153799560939583,1
550,942,56,0.159427784208994,1
550,943,56,0.139358166912866,1
550,944,56,0.152477572371434,1
550,945,56,0.214761378549088,1
550,946,56,0.186160516897024,1
551,919,56,0.120651745439927,1
551,920,56,0.124764274244964,1
551,921,56,0.121485606455381,1
551,922,56,0.114459292508057,1
551,944,56,0.121261645789737,1
551,945,56,0.128997928119473,1
552,918,56,0.117234463934478,1
552,919,56,0.145930482665913,1
552,920,56,0.154337975711203,1
552,921,56,0.140091241506877,1
553,918,56,0.123543142759455,1
553,919,56,0.177898432819432,1
553,920,56,0.167313938938739,1
553,921,56,0.124718426904618,1
554,917,56,0.115941458234192,1
554,918,56,0.138283904726471,1
554,919,56,0.206290985261111,1
554,920,56,0.175720560495925,1
555,917,56,0.146603966316655,1
555,918,56,0.137777735014668,1
555,919,56,0.172662885601688,1
555,920,56,0.145570616963643,1
556,916,56,0.168678536209012,1
556,917,56,0.17443261884813,1
556,918,56,0.118284406892048,1
557,916,56,0.194615070299883,1
557,917,56,0.181014838945701,1
558,916,56,0.173152131956677,1
558,917,56,0.143270100354917,1
559,916,56,0.16570992975429,1
559,917,56,0.119694592411609,1
560,916,56,0.162725271430858,1
561,916,56,0.136668613304147,1
562,915,56,0.177088467065617,1
562,916,56,0.113903341982578,1
593,929,56,0.119641349199253,1
543,926,57,0.267247479727067,1
543,931,57,0.119350484156393,1
544,928,57,0.184817459515138,1
544,929,57,0.224560744086906,1
544,930,57,0.204540212769345,1
544,931,57,0.140427612360961,1
544,932,57,0.118734224298803,1
544,933,57,0.12438065460345,1
544,934,57,0.127110661747768,1
544,935,57,0.136448833426025,1
544,936,57,0.131477135119944,1
545,926,57,0.231198562770085,1
545,927,57,0.186581327882183,1
545,928,57,0.194596580619857,1
545,929,57,0.295751947728803,1
545,930,57,0.284647163673662,1
545,931,57,0.16628146107383,1
545,937,57,0.11617280299498,1
546,924,57,0.189281928191453,1
546,925,57,0.199477832593071,1
546,926,57,0.198234572375862,1
546,927,57,0.167750236503028,1
546,928,57,0.163880417134719,1
546,929,57,0.217515869798358,1
546,930,57,0.221291650889591,1
546,931,57,0.154598268009255,1
547,923,57,0.155316020900263,1
547,924,57,0.142497997226124,1
547,925,57,0.13331922543268,1
547,926,57,0.131656119933345,1
547,927,57,0.130765588637453,1
547,928,57,0.129657880150883,1
547,929,57,0.136699386255681,1
547,930,57,0.143371463842807,1
547,931,57,0.12851435821402,1
548,922,57,0.11993943346113,1
548,923,57,0.125514696162975,1
549,940,57,0.154565269229997,1
549,941,57,0.158590072158273,1
549,942,57,0.122501502492597,1
549,944,57,0.127725096191088,1
550,940,57,0.146150450973895,1
550,941,57,0.177394170959963,1
550,942,57,0.151206777840912,1
550,943,57,0.124367440959507,1
550,944,57,0.147713582655559,1
550,945,57,0.198733982166433,1
551,919,57,0.139450132461481,1
551,920,57,0.141096962331646,1
551,921,57,0.127892775212881,1
551,944,57,0.122914540746026,1
551,945,57,0.162591615775687,1
551,946,57,0.145101662149218,1
552,919,57,0.162778750180539,1
552,920,57,0.159216153922323,1
552,921,57,0.13092450567075,1
552,945,57,0.12142048038497,1
552,946,57,0.1242088419016,1
553,918,57,0.136152468586622,1
553,919,57,0.188866864317028,1
553,920,57,0.160268852666598,1
554,918,57,0.14734713368505,1
554,919,57,0.215913226730396,1
554,920,57,0.167114603700442,1
554,928,57,0.122188284957578,1
555,917,57,0.178004200855302,1
555,918,57,0.149877063648498,1
555,919,57,0.181287014101808,1
555,920,57,0.139405097724907,1
556,917,57,0.19364074660056,1
556,918,57,0.132886272498408,1
557,917,57,0.165669629317953,1
558,917,57,0.149468276843789,1
559,917,57,0.150603484313073,1
559,920,57,0.119783872834717,1
560,916,57,0.176442929918507,1
560,917,57,0.117808751040722,1
560,920,57,0.127488027873299,1
560,952,57,0.120253016079003,1
586,923,57,0.136103594591648,1
587,923,57,0.143697423947118,1
587,924,57,0.13965411956195,1
588,924,57,0.135116846298423,1
592,929,57,0.117112043409717,1
593,928,57,0.116181588537209,1
593,929,57,0.146663474821861,1
593,930,57,0.120423474441232,1
594,929,57,0.120109350087512,1
594,930,57,0.132420297231146,1
544,929,58,0.209935619169686,1
544,930,58,0.17338277010549,1
544,931,58,0.128660049826508,1
545,927,58,0.164512481546828,1
545,928,58,0.181278452320038,1
545,929,58,0.247293275720275,1
545,930,58,0.219743134298955,1
545,931,58,0.141651181657785,1
546,926,58,0.192873625086195,1
546,927,58,0.155194212772548,1
546,928,58,0.148553838509392,1
546,929,58,0.180279079226183,1
546,930,58,0.182607035933292,1
546,931,58,0.145715613741021,1
547,924,58,0.132918352682097,1
547,925,58,0.123763676357018,1
547,926,58,0.125471192419014,1
547,927,58,0.124852329873981,1
547,928,58,0.12203828301204,1
547,929,58,0.129494794106931,1
547,930,58,0.148622650738942,1
547,931,58,0.142351469456132,1
548,923,58,0.128938125192611,1
548,930,58,0.127425893126917,1
548,931,58,0.115178387961819,1
549,922,58,0.114215805798156,1
549,923,58,0.119413337291617,1
549,940,58,0.134177123032168,1
549,941,58,0.13285733673801,1
550,940,58,0.152184528608316,1
550,941,58,0.172584910970189,1
550,942,58,0.12961841587205,1
550,944,58,0.125121796350848,1
551,920,58,0.152280015439943,1
551,921,58,0.127082515037409,1
551,941,58,0.132206346901822,1
551,942,58,0.115511261086624,1
551,945,58,0.171595571766386,1
552,920,58,0.15836167161405,1
552,921,58,0.119839695180784,1
552,945,58,0.129873337919088,1
552,946,58,0.147836580246766,1
553,919,58,0.181319824451205,1
553,920,58,0.15143919429653,1
553,930,58,0.114065992282478,1
554,919,58,0.196030743839121,1
554,920,58,0.152841088902244,1
554,928,58,0.127646085195358,1
554,929,58,0.126753893361324,1
555,918,58,0.157705617725371,1
555,919,58,0.17197657694359,1
555,920,58,0.132742653614382,1
556,918,58,0.150533459066298,1
556,919,58,0.125525801747857,1
557,918,58,0.129448899659121,1
558,927,58,0.116888176959004,1
559,920,58,0.125919997015271,1
559,921,58,0.114279306661024,1
560,917,58,0.119812019545076,1
560,920,58,0.147255250574499,1
560,921,58,0.142190491471241,1
560,924,58,0.130004143572624,1
561,920,58,0.114061387527771,1
561,921,58,0.114455523910854,1
562,917,58,0.116435356451353,1
562,918,58,0.115642514261078,1
586,922,58,0.117340973912922,1
586,923,58,0.143578324498642,1
587,923,58,0.15694836522493,1
587,924,58,0.15191540366057,1
588,924,58,0.139153908944473,1
592,928,58,0.136482915676978,1
592,929,58,0.132508847488546,1
593,928,58,0.150058639372476,1
593,929,58,0.160788283129809,1
593,930,58,0.12061238715289,1
594,929,58,0.141310453363186,1
594,930,58,0.13969145222799,1
594,931,58,0.125522586663368,1
594,932,58,0.117570139953452,1
545,929,59,0.179992371417112,1
545,930,59,0.159672342613724,1
545,931,59,0.127268989937751,1
546,927,59,0.136979275259188,1
546,928,59,0.137718980228903,1
546,929,59,0.151327078529746,1
546,930,59,0.15269743468762,1
546,931,59,0.14063707570424,1
546,932,59,0.114431663979814,1
547,927,59,0.11531223204685,1
547,928,59,0.119571088415153,1
547,929,59,0.132451588364795,1
547,930,59,0.155886221433915,1
547,931,59,0.150402076346315,1
547,932,59,0.113822293588985,1
548,929,59,0.124081804845267,1
548,930,59,0.15769283982548,1
548,931,59,0.139079585141514,1
549,923,59,0.121654180519009,1
549,930,59,0.118102018564298,1
550,937,59,0.117614432747452,1
550,940,59,0.131866619640855,1
550,941,59,0.144826848975069,1
551,921,59,0.125377954968844,1
551,941,59,0.13731647049391,1
552,921,59,0.119197019812175,1
552,930,59,0.118069196438035,1
552,931,59,0.132094125143242,1
552,945,59,0.119646872549529,1
553,920,59,0.146882241889484,1
553,930,59,0.132435218520696,1
553,931,59,0.120169624089024,1
554,920,59,0.140809865885989,1
554,929,59,0.125631934866581,1
555,919,59,0.162938020519823,1
555,920,59,0.131724249104652,1
556,919,59,0.151424861850293,1
556,920,59,0.119296652100724,1
556,921,59,0.116443859348792,1
557,919,59,0.133004323805786,1
558,927,59,0.135994269942168,1
559,920,59,0.116581978436275,1
559,921,59,0.117848403749415,1
560,920,59,0.143186849687334,1
560,921,59,0.155097277386372,1
560,924,59,0.145863519404366,1
560,925,59,0.127901442986447,1
561,920,59,0.119524310702373,1
561,921,59,0.130980304463084,1
562,917,59,0.128695074226762,1
562,918,59,0.119281577711913,1
570,923,59,0.120458133758632,1
570,924,59,0.116002968806661,1
586,923,59,0.131599355437977,1
587,923,59,0.142958378481913,1
587,924,59,0.140682051556482,1
588,924,59,0.12623031744119,1
589,925,59,0.12201788547968,1
592,927,59,0.131895743831113,1
592,928,59,0.162088437387914,1
592,929,59,0.139648890633331,1
593,928,59,0.185524413019787,1
593,929,59,0.165278967110416,1
593,930,59,0.115108515814306,1
594,929,59,0.163007880890471,1
594,930,59,0.138072757291317,1
594,931,59,0.133132927185332,1
594,932,59,0.152982105098827,1
594,933,59,0.126638491848854,1
546,929,60,0.126266837503459,1
546,930,60,0.128722172796023,1
546,931,60,0.129722181840656,1
546,932,60,0.123718500298049,1
547,928,60,0.114980795699729,1
547,929,60,0.137593721479374,1
547,930,60,0.161831230628822,1
547,931,60,0.148585989354278,1
547,932,60,0.119591650823641,1
548,929,60,0.133156092281263,1
548,930,60,0.173127235661406,1
548,931,60,0.146544811117437,1
549,930,60,0.130068574807926,1
549,937,60,0.138039546528467,1
550,937,60,0.134601655507065,1
550,938,60,0.119393033974186,1
551,941,60,0.124636883882642,1
552,930,60,0.122152165308763,1
552,931,60,0.136469596041239,1
553,929,60,0.117251069315903,1
553,930,60,0.136671227768456,1
553,931,60,0.12267053585401,1
554,929,60,0.116633831978413,1
554,930,60,0.11551061335898,1
554,943,60,0.116468425891808,1
555,920,60,0.120874151559224,1
555,921,60,0.116135741196863,1
556,920,60,0.122848142774059,1
556,921,60,0.119178506578416,1
558,926,60,0.115085009189253,1
558,927,60,0.130595354035682,1
558,947,60,0.119893303475994,1
558,948,60,0.118928177509219,1
559,948,60,0.121280347453356,1
560,920,60,0.126195505024529,1
560,921,60,0.141946274595632,1
560,924,60,0.139815285976701,1
560,925,60,0.127642787672805,1
561,920,60,0.122756954498617,1
561,921,60,0.131827226023219,1
562,918,60,0.114289010798821,1
562,920,60,0.11432628458053,1
562,951,60,0.122557654590919,1
567,924,60,0.116743875016735,1
568,921,60,0.12267072428387,1
569,923,60,0.11819849465269,1
569,924,60,0.119875496854211,1
570,923,60,0.135239702567234,1
570,924,60,0.155778239347189,1
587,924,60,0.114922511988614,1
588,925,60,0.11473554245989,1
589,924,60,0.117434705991476,1
589,925,60,0.125264626184835,1
590,924,60,0.118442534875305,1
590,925,60,0.115861269551836,1
591,927,60,0.114375994733009,1
591,928,60,0.115103392877483,1
592,927,60,0.152709435314337,1
592,928,60,0.17382655775672,1
592,929,60,0.13271593190484,1
593,928,60,0.199089384436391,1
593,929,60,0.156761054167084,1
547,930,61,0.164973180778006,1
547,931,61,0.144188825468632,1
547,932,61,0.117967915388209,1
548,929,61,0.131525891346255,1
548,930,61,0.162089827058132,1
548,931,61,0.134262540643143,1
549,930,61,0.123000676745843,1
549,937,61,0.133984783252429,1
550,937,61,0.115827776144196,1
557,947,61,0.115519387124343,1
558,946,61,0.127204228950194,1
558,947,61,0.161275492086935,1
558,948,61,0.122708021619312,1
559,947,61,0.123593017788061,1
559,948,61,0.115158567495906,1
559,949,61,0.116520656293666,1
560,923,61,0.12212019111687,1
560,924,61,0.120283376840218,1
561,920,61,0.128499201387145,1
561,921,61,0.118252079394168,1
561,923,61,0.117324945597944,1
562,920,61,0.14043841174732,1
562,921,61,0.120444295940778,1
567,920,61,0.118691898241469,1
567,924,61,0.124630512597996,1
567,925,61,0.114610012842437,1
568,920,61,0.122221790142085,1
568,921,61,0.126496109535785,1
568,924,61,0.1209585916903,1
569,921,61,0.11453678428804,1
569,923,61,0.114941649396285,1
569,924,61,0.133772988089631,1
570,923,61,0.135659512518762,1
570,924,61,0.170697785920879,1
571,924,61,0.130720624562077,1
588,925,61,0.115748824032797,1
589,924,61,0.148492104176463,1
589,925,61,0.121625857155657,1
591,927,61,0.126731434877368,1
591,928,61,0.121308517717447,1
592,928,61,0.171327129876883,1
592,929,61,0.120028784545435,1
548,930,62,0.13317398134111,1
558,946,62,0.1340260493918,1
558,947,62,0.163085243124925,1
559,947,62,0.121568527370709,1
560,923,62,0.125066763054821,1
561,923,62,0.115116995158012,1
567,924,62,0.121985357775073,1
567,925,62,0.119567732008269,1
568,920,62,0.126536139104199,1
568,921,62,0.119978108689923,1
568,924,62,0.129756864711789,1
568,925,62,0.131135429345445,1
569,921,62,0.115653690507158,1
569,924,62,0.133613776634678,1
570,923,62,0.126806194424379,1
570,924,62,0.155048721366787,1
571,924,62,0.129935908409521,1
574,919,62,0.141974115107468,1
574,920,62,0.120896138968529,1
575,919,62,0.139615161688365,1
575,920,62,0.134492354411317,1
583,942,62,0.114626429794002,1
587,926,62,0.141259989491267,1
587,927,62,0.128620561993942,1
588,924,62,0.119186526624338,1
588,925,62,0.116561510242717,1
588,926,62,0.125369711162462,1
589,924,62,0.175491453339726,1
589,925,62,0.118705547629463,1
591,927,62,0.127465039430361,1
591,928,62,0.120874010236829,1
558,946,63,0.123254574205516,1
568,924,63,0.11948302100927,1
568,925,63,0.11948194931444,1
569,924,63,0.114604748583219,1
570,924,63,0.118046655516016,1
574,919,63,0.158299030462419,1
574,920,63,0.142450783769293,1
575,919,63,0.16175908554612,1
575,920,63,0.161683395626675,1
575,921,63,0.119156142309391,1
576,920,63,0.118366244335681,1
576,922,63,0.114193747727654,1
577,921,63,0.129824134171859,1
577,922,63,0.131252291189331,1
578,921,63,0.142727752109967,1
578,922,63,0.136768033609104,1
583,942,63,0.145110647898173,1
586,926,63,0.1333629176065,1
586,927,63,0.130660998288209,1
586,931,63,0.117137787639359,1
587,925,63,0.118195691758521,1
587,926,63,0.181489799961918,1
587,927,63,0.164708754799897,1
587,931,63,0.125526520136698,1
587,932,63,0.12054124310382,1
588,923,63,0.130019005977843,1
588,924,63,0.138826512062479,1
588,925,63,0.125288026818091,1
588,926,63,0.141734467655967,1
588,927,63,0.116797836617933,1
589,924,63,0.186900928478714,1
589,925,63,0.121258524920179,1
591,932,63,0.123225591337653,1
573,925,64,0.120684402690062,1
574,920,64,0.148835022968187,1
574,921,64,0.115731358940135,1
574,925,64,0.128811217681806,1
575,920,64,0.169535420998002,1
575,921,64,0.130726642540735,1
576,920,64,0.141501215042846,1
576,921,64,0.141828847462165,1
576,922,64,0.130837003554447,1
577,920,64,0.118540094435393,1
577,921,64,0.172468449539755,1
577,922,64,0.16551032364807,1
578,920,64,0.115266867558022,1
578,921,64,0.199702817846079,1
578,922,64,0.184211916605843,1
579,921,64,0.154354239563506,1
579,922,64,0.133794822399675,1
583,941,64,0.118327015594173,1
583,942,64,0.150043188123944,1
586,926,64,0.158934686818738,1
586,927,64,0.152805993840793,1
586,931,64,0.146771421577989,1
586,932,64,0.128658224412238,1
587,925,64,0.124069592234956,1
587,926,64,0.197172287262452,1
587,927,64,0.174413069250141,1
587,931,64,0.139607883585018,1
587,932,64,0.138138271998315,1
588,924,64,0.149576447360376,1
588,925,64,0.130322201399676,1
588,926,64,0.14443654007352,1
588,927,64,0.116504451325694,1
589,925,64,0.118458410091022,1
591,932,64,0.14292804127443,1
573,925,65,0.129967658840955,1
574,925,65,0.135347319571107,1
577,921,65,0.204597754537886,1
577,922,65,0.187728288663994,1
577,927,65,0.116127273630023,1
577,928,65,0.140145945050649,1
578,921,65,0.230719409189479,1
578,922,65,0.21377372343716,1
578,923,65,0.121936012705449,1
578,928,65,0.123325247179935,1
579,921,65,0.188126488065936,1
579,922,65,0.168736231076814,1
579,929,65,0.116433260169159,1
581,930,65,0.128833735050093,1
581,931,65,0.124884115636013,1
583,941,65,0.117180455225815,1
583,942,65,0.128311148386725,1
585,931,65,0.122068737988185,1
586,926,65,0.163714528196597,1
586,927,65,0.150592896910306,1
586,931,65,0.142958696457302,1
586,932,65,0.124974243993492,1
587,925,65,0.121828725453831,1
587,926,65,0.181055845994014,1
587,927,65,0.156521583368578,1
587,931,65,0.121499738694891,1
587,932,65,0.125240401170941,1
588,925,65,0.123129009257465,1
588,926,65,0.129921187326698,1
579,922,66,0.174127609788894,1
587,926,66,0.141557626232225,1
587,927,66,0.12042489944205,1
