x,y,z,signal,mito.p
846,999,34,0.165853419092787,1
846,1000,34,0.135999369325258,1
847,999,34,0.206613106107021,1
847,1000,34,0.155470368509451,1
845,999,35,0.129466235206254,1
845,1000,35,0.137501732377027,1
846,998,35,0.166655470792477,1
846,999,35,0.232443424641105,1
846,1000,35,0.223456168246761,1
846,1001,35,0.134910044526918,1
847,998,35,0.17340045895861,1
847,999,35,0.252980701296369,1
847,1000,35,0.21140431216082,1
847,1001,35,0.114977121317456,1
848,999,35,0.172818340236304,1
848,1000,35,0.147493484802048,1
845,999,36,0.155191445208978,1
845,1000,36,0.176424722883271,1
846,998,36,0.177816124301149,1
846,999,36,0.296879818210408,1
846,1000,36,0.318721265035172,1
846,1001,36,0.166731254926852,1
847,998,36,0.17711946377761,1
847,999,36,0.287480795464192,1
847,1000,36,0.2712580915315,1
847,1001,36,0.135040967949117,1
848,999,36,0.165684020648521,1
848,1000,36,0.151720826276243,1
845,999,37,0.167654785002001,1
845,1000,37,0.190408444333438,1
846,998,37,0.179350343776148,1
846,999,37,0.327204730644697,1
846,1000,37,0.355967253339896,1
846,1001,37,0.168556692750698,1
847,998,37,0.177875197062303,1
847,999,37,0.304176222808511,1
847,1000,37,0.297170117963687,1
847,1001,37,0.137574701840366,1
848,999,37,0.158497411774549,1
848,1000,37,0.1496026862184,1
845,999,38,0.172159954528106,1
845,1000,38,0.181258443424264,1
846,998,38,0.171630572612907,1
846,999,38,0.310430798709896,1
846,1000,38,0.313064011790433,1
846,1001,38,0.1448817762793,1
847,998,38,0.170695418770761,1
847,999,38,0.291180662875521,1
847,1000,38,0.269653281520147,1
847,1001,38,0.123061798681726,1
848,999,38,0.147802804194336,1
848,1000,38,0.13565407160655,1
845,999,39,0.190641532070432,1
845,1000,39,0.175309783400818,1
846,998,39,0.16676308779635,1
846,999,39,0.275485303460166,1
846,1000,39,0.239039011481879,1
846,1001,39,0.117505002106175,1
847,998,39,0.159731191614419,1
847,999,39,0.256892198994369,1
847,1000,39,0.214520612295293,1
848,999,39,0.138892226976203,1
848,1000,39,0.123350025706544,1
820,995,40,0.128009613503035,1
820,999,40,0.168104708400552,1
820,1000,40,0.155184838387006,1
820,1001,40,0.128448395986105,1
821,994,40,0.114651655841528,1
821,1000,40,0.144786948952184,1
822,993,40,0.116676629110397,1
823,992,40,0.117002565660976,1
823,993,40,0.160976760097414,1
824,992,40,0.138773787032238,1
825,992,40,0.13136076790444,1
825,993,40,0.166923900905113,1
826,992,40,0.118035067079617,1
826,993,40,0.148616668090882,1
827,993,40,0.14016681365766,1
827,994,40,0.176107348114462,1
828,993,40,0.142237434060148,1
831,992,40,0.117606589354523,1
834,993,40,0.125924448670717,1
837,994,40,0.121056881416096,1
838,995,40,0.120872808996471,1
840,999,40,0.119923428699884,1
841,993,40,0.124601329523407,1
841,999,40,0.122772335085951,1
841,1000,40,0.161466194882264,1
841,1005,40,0.160567290234462,1
842,1001,40,0.118389680299536,1
842,1002,40,0.120660742965748,1
842,1003,40,0.126860638877094,1
842,1004,40,0.142095887904584,1
842,1005,40,0.167301007939586,1
843,1002,40,0.120187124512285,1
843,1003,40,0.136451506774666,1
843,1004,40,0.147976830947042,1
844,999,40,0.135260182537658,1
844,1000,40,0.131982668880969,1
844,1001,40,0.118245437241598,1
844,1003,40,0.124303127492868,1
845,998,40,0.16315129956777,1
845,999,40,0.218653114665505,1
845,1000,40,0.175691683619858,1
845,1001,40,0.114029118914222,1
846,998,40,0.178909971416132,1
846,999,40,0.248217830382789,1
846,1000,40,0.184492312014599,1
847,998,40,0.150044189157576,1
847,999,40,0.210561842256131,1
847,1000,40,0.162947489120295,1
848,999,40,0.128924605350146,1
819,999,41,0.118267754403158,1
819,1000,41,0.134755096297551,1
819,1001,41,0.113988276742036,1
820,999,41,0.182810610843441,1
820,1000,41,0.174517365177728,1
822,993,41,0.123912559500261,1
823,992,41,0.125832106262382,1
824,992,41,0.152913363530475,1
825,992,41,0.147083084566662,1
826,992,41,0.128587398338557,1
826,993,41,0.16462186508064,1
827,993,41,0.145780574935305,1
829,992,41,0.116080861000097,1
830,992,41,0.134754495677372,1
831,992,41,0.132907777056196,1
833,993,41,0.14495751330621,1
834,993,41,0.119906634888599,1
840,999,41,0.130273833809951,1
841,993,41,0.135881435786543,1
841,999,41,0.123771661072341,1
841,1000,41,0.154116158435218,1
842,993,41,0.122021041679837,1
842,1002,41,0.119522202643313,1
842,1003,41,0.122923856247237,1
842,1004,41,0.137740649662819,1
842,1006,41,0.166569028594137,1
843,1001,41,0.114627489711965,1
843,1002,41,0.133143408596302,1
843,1003,41,0.136241348596278,1
844,998,41,0.130439051466696,1
844,999,41,0.156100795937151,1
844,1000,41,0.133435145127265,1
844,1001,41,0.130543029418895,1
844,1002,41,0.149189553750042,1
844,1003,41,0.138367343823915,1
844,1004,41,0.149930141984726,1
845,997,41,0.11621621252401,1
845,998,41,0.203473746868413,1
845,999,41,0.24146895585079,1
845,1000,41,0.165224487327103,1
845,1001,41,0.114493103891086,1
846,997,41,0.120761199634936,1
846,998,41,0.19632028987296,1
846,999,41,0.22391982347137,1
846,1000,41,0.145053671419213,1
847,998,41,0.135662174090536,1
847,999,41,0.159188749154539,1
847,1000,41,0.12011621600054,1
819,1000,42,0.128658448172697,1
819,1001,42,0.114546582640767,1
820,999,42,0.174332774575988,1
820,1000,42,0.181162167542599,1
822,993,42,0.12974489941567,1
823,992,42,0.128382198220864,1
826,992,42,0.131316310234313,1
827,993,42,0.147362102082065,1
829,992,42,0.130708305959971,1
833,993,42,0.132604475642567,1
834,993,42,0.119447819956022,1
838,994,42,0.129105191817358,1
840,999,42,0.144317440625044,1
841,993,42,0.139717031581504,1
841,999,42,0.117905109360451,1
841,1000,42,0.136015538962631,1
842,993,42,0.127643447177316,1
842,1004,42,0.129651685519231,1
843,1001,42,0.115350765953249,1
843,1002,42,0.141855050989591,1
843,1003,42,0.128636131011136,1
844,998,42,0.150309698607381,1
844,999,42,0.165088829604668,1
844,1000,42,0.126911538493064,1
844,1001,42,0.147260832809106,1
844,1002,42,0.195165956772871,1
844,1003,42,0.146168834662125,1
844,1004,42,0.143827334558818,1
845,997,42,0.123684100071707,1
845,998,42,0.227245092320739,1
845,999,42,0.23993052025767,1
845,1000,42,0.145296168872348,1
845,1001,42,0.118544263446049,1
845,1002,42,0.144687034018844,1
846,997,42,0.126824024599895,1
846,998,42,0.200237016499578,1
846,999,42,0.193667574301898,1
847,998,42,0.116544857753828,1
847,999,42,0.114274760790648,1
819,1000,43,0.116069602315954,1
819,1001,43,0.116272046646942,1
819,1002,43,0.118864087803039,1
820,999,43,0.156594505724452,1
823,992,43,0.126632815399317,1
826,992,43,0.123493491491308,1
827,993,43,0.141940056410247,1
829,992,43,0.137274568403761,1
833,993,43,0.1318210196147,1
834,993,43,0.132690281890129,1
835,993,43,0.119575068995949,1
837,1007,43,0.165328147303913,1
838,994,43,0.140062659052467,1
838,1007,43,0.137669175861494,1
838,1008,43,0.130394970656289,1
841,992,43,0.118724743921465,1
841,993,43,0.13282824787835,1
841,1000,43,0.114557853101777,1
841,1001,43,0.117548128990414,1
842,993,43,0.126361641276842,1
843,1002,43,0.136140809489026,1
843,1003,43,0.115667316341419,1
844,998,43,0.17259006923761,1
844,999,43,0.167074044173047,1
844,1000,43,0.114788126167735,1
844,1001,43,0.147285882203638,1
844,1002,43,0.20554103441775,1
844,1003,43,0.137446110237686,1
844,1004,43,0.118967677118651,1
845,997,43,0.129512730274244,1
845,998,43,0.236023356446454,1
845,999,43,0.221641188280153,1
845,1000,43,0.123649876498359,1
845,1001,43,0.114693852353334,1
845,1002,43,0.152444832683235,1
846,997,43,0.124011449846237,1
846,998,43,0.190230495884268,1
846,999,43,0.164110360448422,1
847,995,43,0.123060326573444,1
820,995,44,0.117583471366057,1
820,999,44,0.14166633848466,1
821,993,44,0.116457744274111,1
825,992,44,0.124421732312961,1
826,993,44,0.149935253144682,1
827,993,44,0.127469126002953,1
833,991,44,0.115736387662027,1
833,992,44,0.121651624939031,1
833,993,44,0.135316193313585,1
834,991,44,0.129816090572204,1
834,992,44,0.145808050364287,1
834,993,44,0.149366277405121,1
835,992,44,0.11889581468074,1
835,993,44,0.126644356728251,1
838,994,44,0.135448164876881,1
838,1007,44,0.127822655751176,1
838,1008,44,0.115388369487214,1
839,1008,44,0.132283167400428,1
840,992,44,0.115629971898513,1
841,992,44,0.123607350234298,1
841,993,44,0.11753498600767,1
842,993,44,0.116969319567527,1
843,998,44,0.117238621168267,1
843,1002,44,0.120092862474749,1
844,998,44,0.166579780873031,1
844,999,44,0.142524330299079,1
844,1001,44,0.130633770173419,1
844,1002,44,0.171668352799865,1
844,1003,44,0.116325266305566,1
845,997,44,0.121223606511721,1
845,998,44,0.207070095625328,1
845,999,44,0.175056604329986,1
845,1002,44,0.12976104549931,1
846,998,44,0.153209610601215,1
846,999,44,0.124085926748457,1
847,995,44,0.131156639481577,1
848,995,44,0.127731373260804,1
820,994,45,0.121513847380669,1
820,995,45,0.119759600713358,1
820,996,45,0.11758204636524,1
821,993,45,0.157580453190772,1
823,992,45,0.115753146142714,1
826,993,45,0.125756275020541,1
827,993,45,0.118776526802405,1
831,992,45,0.123369127783615,1
832,993,45,0.138289475184211,1
833,991,45,0.127856302258077,1
833,992,45,0.136216876268192,1
833,993,45,0.134165982116687,1
834,991,45,0.150015170959115,1
834,992,45,0.175192898003199,1
834,993,45,0.152871802969447,1
835,991,45,0.123099437546289,1
835,992,45,0.134937543509632,1
835,993,45,0.125142323428738,1
838,994,45,0.120599597476133,1
838,1007,45,0.12179573845144,1
840,992,45,0.118134746475631,1
841,992,45,0.123602262628075,1
844,998,45,0.140744834030508,1
844,1002,45,0.11756605338086,1
845,998,45,0.158814197700044,1
845,999,45,0.125712052887739,1
847,994,45,0.123167295849672,1
847,995,45,0.126149221940132,1
848,994,45,0.11802611666126,1
848,995,45,0.132163502662373,1
820,993,46,0.141500072686819,1
820,994,46,0.157172208121911,1
820,995,46,0.130424730797325,1
820,996,46,0.11705490205463,1
821,993,46,0.194958283513263,1
825,993,46,0.121052229553923,1
828,1010,46,0.163026017264509,1
829,1009,46,0.151953372277389,1
829,1010,46,0.155871488574226,1
830,1009,46,0.162624049265364,1
832,993,46,0.123666105020064,1
833,990,46,0.127244176080544,1
833,991,46,0.136946865323243,1
833,992,46,0.144900183521262,1
833,993,46,0.127232870288936,1
833,994,46,0.133210784048169,1
834,990,46,0.135201898826544,1
834,991,46,0.166071703308894,1
834,992,46,0.190030972216111,1
834,993,46,0.144917036216879,1
834,994,46,0.128659649413055,1
835,991,46,0.135019840251049,1
835,992,46,0.145956485986613,1
835,993,46,0.120995229521231,1
835,994,46,0.143419325027282,1
837,994,46,0.145778843735965,1
838,995,46,0.151770512874988,1
838,1006,46,0.145717321386629,1
839,996,46,0.135462438438787,1
840,1004,46,0.139737205353405,1
847,994,46,0.116833614737627,1
848,995,46,0.114501500796729,1
819,993,47,0.126285539167078,1
819,994,47,0.119886060703245,1
819,999,47,0.125756169028745,1
820,992,47,0.124887154067508,1
820,993,47,0.197053152483378,1
820,994,47,0.188630926578399,1
820,995,47,0.141177657419251,1
820,996,47,0.124461608782113,1
820,997,47,0.131095128909107,1
821,992,47,0.117719447063881,1
821,993,47,0.211841752081137,1
827,1011,47,0.138207107781597,1
828,1010,47,0.148384192750934,1
829,1005,47,0.168857674121674,1
829,1008,47,0.145786510475899,1
829,1009,47,0.144947184994501,1
829,1010,47,0.155930043153264,1
830,1007,47,0.168452985666423,1
830,1008,47,0.157016093982784,1
830,1009,47,0.150024356914796,1
830,1010,47,0.155604412801209,1
831,1009,47,0.16363900315328,1
831,1010,47,0.156263681774376,1
832,993,47,0.116285083637891,1
832,1009,47,0.182094035639058,1
833,990,47,0.12971590477094,1
833,991,47,0.13808728994428,1
833,992,47,0.137026853798873,1
833,993,47,0.117386703484605,1
833,994,47,0.124165267496443,1
834,990,47,0.149527750018395,1
834,991,47,0.170679425786381,1
834,992,47,0.171748506151623,1
834,993,47,0.127650807718728,1
834,994,47,0.121806643829596,1
835,990,47,0.126051367958388,1
835,991,47,0.140715968931308,1
835,992,47,0.137837832363187,1
835,993,47,0.11390963082916,1
835,994,47,0.133320096920783,1
836,994,47,0.134346156393581,1
837,994,47,0.115297675840155,1
837,995,47,0.161230563342158,1
837,996,47,0.166922629003557,1
837,997,47,0.163360927787177,1
838,995,47,0.124322677090858,1
838,996,47,0.157206160827335,1
838,1005,47,0.150753922002663,1
838,1006,47,0.127624580637569,1
839,991,47,0.115783200705406,1
839,996,47,0.124393738701863,1
839,997,47,0.16356603368994,1
839,1004,47,0.148100794241282,1
839,1005,47,0.144178273396464,1
840,991,47,0.122600675483363,1
840,998,47,0.119018635618953,1
841,991,47,0.118297620535991,1
819,992,48,0.121471156240481,1
819,993,48,0.179978345169398,1
819,994,48,0.146790500101328,1
819,995,48,0.117831739483659,1
819,996,48,0.125622737134033,1
819,997,48,0.128658554164493,1
819,998,48,0.126550624649697,1
820,992,48,0.160854280688323,1
820,993,48,0.253329908934675,1
820,994,48,0.207645324880872,1
820,995,48,0.143549212085251,1
820,996,48,0.127679154635813,1
820,997,48,0.142944564217791,1
821,992,48,0.127660547187124,1
821,993,48,0.207784550993784,1
821,994,48,0.20911470093025,1
822,993,48,0.160671751038178,1
823,993,48,0.117511679589343,1
826,1012,48,0.130838758307519,1
827,1011,48,0.127894647734616,1
828,993,48,0.157457585145094,1
828,1003,48,0.160694668819917,1
828,1004,48,0.143951768927709,1
828,1005,48,0.149265031685894,1
828,1010,48,0.139528071762382,1
829,1004,48,0.158231925878477,1
829,1005,48,0.156834824457329,1
829,1006,48,0.154647848616204,1
829,1007,48,0.144136100438391,1
829,1008,48,0.13498149477451,1
829,1009,48,0.137796165810363,1
829,1010,48,0.151524576576906,1
830,1006,48,0.168330671133459,1
830,1007,48,0.148113949000893,1
830,1008,48,0.134696553495379,1
830,1009,48,0.13224721262774,1
830,1010,48,0.141310100057198,1
831,993,48,0.137136496423743,1
831,1007,48,0.155027946974707,1
831,1008,48,0.14382440211912,1
831,1009,48,0.142250930348881,1
831,1010,48,0.140452626424895,1
831,1011,48,0.136461293350527,1
832,994,48,0.148130589712917,1
832,1008,48,0.154063880925895,1
832,1009,48,0.173714971948918,1
832,1010,48,0.179101027517449,1
833,990,48,0.130601348460608,1
833,991,48,0.136674313307416,1
833,992,48,0.124616439242817,1
833,994,48,0.116425475660562,1
833,1009,48,0.178385488677297,1
833,1013,48,0.161289954078701,1
834,989,48,0.122491244842086,1
834,990,48,0.159761446383838,1
834,991,48,0.171888768628765,1
834,992,48,0.145944108500175,1
834,994,48,0.114118328676132,1
834,1010,48,0.153402868976522,1
834,1011,48,0.151565253872964,1
834,1012,48,0.148172986431448,1
835,989,48,0.115995408058523,1
835,990,48,0.140727816458764,1
835,991,48,0.14584934005739,1
835,992,48,0.124134117685188,1
835,994,48,0.117728644796429,1
835,995,48,0.163536426648165,1
835,1010,48,0.11898754469203,1
836,995,48,0.143338877253868,1
836,996,48,0.149320536056572,1
836,997,48,0.139320174742315,1
837,995,48,0.118926882053931,1
837,996,48,0.129371278333609,1
837,997,48,0.130108651483805,1
838,996,48,0.128924346259088,1
838,997,48,0.139182514952616,1
839,990,48,0.116820978160131,1
839,991,48,0.1140961763907,1
839,997,48,0.119246729964653,1
839,998,48,0.155904711113942,1
840,990,48,0.115124131938965,1
840,991,48,0.123914903096647,1
840,999,48,0.12949492365246,1
841,991,48,0.120509586887317,1
816,1008,49,0.115472762510824,1
818,1001,49,0.117389447494443,1
819,992,49,0.132937784511424,1
819,993,49,0.203853480144062,1
819,994,49,0.154889474581236,1
819,995,49,0.12112250211489,1
819,996,49,0.137807294948977,1
819,997,49,0.148312789610807,1
819,998,49,0.153699799105505,1
820,992,49,0.167342462508817,1
820,993,49,0.256318948252355,1
820,994,49,0.19608004180128,1
820,995,49,0.139805098987387,1
820,996,49,0.132807544147467,1
820,997,49,0.157625134621358,1
821,992,49,0.125569729459002,1
821,993,49,0.179243021193931,1
821,994,49,0.180180954376514,1
822,993,49,0.125473453577336,1
826,994,49,0.129824522808445,1
826,1012,49,0.125153311244957,1
826,1013,49,0.143170880256687,1
827,994,49,0.140959844277795,1
827,1011,49,0.120867862712642,1
827,1012,49,0.134074063675537,1
828,993,49,0.131425764429323,1
828,994,49,0.176998974658916,1
828,1003,49,0.146392724666571,1
828,1004,49,0.130440629566774,1
828,1005,49,0.143123843452849,1
828,1010,49,0.131871083073167,1
828,1011,49,0.149725142073759,1
829,993,49,0.152042405386305,1
829,1003,49,0.163368182336792,1
829,1004,49,0.151014473391772,1
829,1005,49,0.159717789540616,1
829,1006,49,0.158819532620459,1
829,1007,49,0.145691447611458,1
829,1008,49,0.133849149083727,1
829,1009,49,0.13044555229687,1
829,1010,49,0.138968022887445,1
830,993,49,0.142891803856952,1
830,1004,49,0.180249719498599,1
830,1005,49,0.192733032856797,1
830,1006,49,0.169852030270503,1
830,1007,49,0.139963226970644,1
830,1008,49,0.12232933648476,1
830,1009,49,0.118497497510135,1
830,1010,49,0.12504570601795,1
830,1011,49,0.148552119086918,1
831,993,49,0.130667181142995,1
831,994,49,0.201398639479881,1
831,1006,49,0.162712776175758,1
831,1007,49,0.132108127837224,1
831,1008,49,0.12224176370726,1
831,1009,49,0.126968620963821,1
831,1010,49,0.126065005569516,1
831,1011,49,0.118331514357083,1
831,1012,49,0.123889311966267,1
831,1013,49,0.130293348077342,1
832,993,49,0.115437066829194,1
832,994,49,0.149177423577795,1
832,1008,49,0.135719621644147,1
832,1009,49,0.157390115478298,1
832,1010,49,0.159330530847428,1
832,1011,49,0.13118908474812,1
832,1012,49,0.135763313817967,1
832,1013,49,0.137878650981639,1
832,1014,49,0.127075755116177,1
833,989,49,0.120142089775711,1
833,990,49,0.131464416104384,1
833,991,49,0.133844932965606,1
833,992,49,0.117436472521415,1
833,994,49,0.120538251779791,1
833,1009,49,0.164410399670097,1
833,1010,49,0.169918440019337,1
833,1011,49,0.152026954137774,1
833,1012,49,0.155419351124818,1
833,1013,49,0.1349057577476,1
834,989,49,0.135553579606764,1
834,990,49,0.161831560381077,1
834,991,49,0.164048814545353,1
834,992,49,0.126533277325698,1
834,995,49,0.15409666772156,1
834,1010,49,0.138932586296872,1
834,1011,49,0.14448158658696,1
834,1012,49,0.146363612253179,1
834,1013,49,0.114420581948664,1
835,989,49,0.133444872818795,1
835,990,49,0.151075654211987,1
835,991,49,0.144963283970677,1
835,995,49,0.131949787870374,1
835,996,49,0.148704806157963,1
836,989,49,0.114132260708916,1
836,990,49,0.116583615420685,1
836,996,49,0.117451240711703,1
836,997,49,0.126895792822876,1
837,997,49,0.114239418415005,1
837,998,49,0.148898335401194,1
838,998,49,0.13716603280432,1
838,1004,49,0.120035921326388,1
839,990,49,0.119705415351701,1
839,998,49,0.117443091120252,1
839,999,49,0.175791786983058,1
839,1002,49,0.129192234635877,1
840,990,49,0.119973998563599,1
817,1003,50,0.115897212547657,1
818,997,50,0.115195158219372,1
818,998,50,0.118830688610329,1
818,999,50,0.117315418113141,1
818,1001,50,0.123402538753192,1
819,992,50,0.130364609895074,1
819,993,50,0.192455393234746,1
819,994,50,0.151355778752819,1
819,995,50,0.119729192844678,1
819,996,50,0.138216234852948,1
819,997,50,0.160687190509843,1
820,992,50,0.158345289993084,1
820,993,50,0.220949061850123,1
820,994,50,0.171391655327115,1
820,995,50,0.133184757173737,1
820,996,50,0.136886108470214,1
821,992,50,0.127789350773396,1
821,993,50,0.154379854247619,1
821,994,50,0.156611911932783,1
825,1014,50,0.163178186153439,1
826,994,50,0.115796437903081,1
826,1013,50,0.120203671009378,1
826,1014,50,0.146787179025043,1
826,1021,50,0.134269618539765,1
827,994,50,0.121723204732152,1
827,1014,50,0.120606969794411,1
827,1015,50,0.150498811525765,1
828,994,50,0.138375740729557,1
828,1003,50,0.132428046409144,1
828,1004,50,0.120125331295025,1
828,1005,50,0.136117738608025,1
828,1010,50,0.118425752840886,1
828,1011,50,0.128971701038314,1
828,1012,50,0.138408527525222,1
828,1013,50,0.122630482731864,1
829,993,50,0.118132320441182,1
829,994,50,0.147894416436963,1
829,995,50,0.166204770120752,1
829,1002,50,0.176610184973114,1
829,1003,50,0.147145266420508,1
829,1004,50,0.146587408042695,1
829,1005,50,0.162986270340886,1
829,1006,50,0.161410078114541,1
829,1009,50,0.118322516831262,1
829,1010,50,0.119604428723532,1
829,1011,50,0.147690028923041,1
829,1018,50,0.135309009425167,1
830,993,50,0.120520233174415,1
830,994,50,0.156252811726819,1
830,995,50,0.162957888093202,1
830,1003,50,0.165090372374147,1
830,1004,50,0.182907169369897,1
830,1005,50,0.203529686983143,1
830,1006,50,0.171713505305101,1
830,1007,50,0.132680589529198,1
830,1011,50,0.121111384753141,1
830,1012,50,0.129390297972617,1
830,1013,50,0.124376780014451,1
830,1014,50,0.140285277155357,1
831,993,50,0.121844482900885,1
831,994,50,0.162218783743666,1
831,995,50,0.171243007721196,1
831,1003,50,0.163973560369959,1
831,1004,50,0.176437277022703,1
831,1005,50,0.185557152707987,1
831,1006,50,0.150977117171999,1
831,1007,50,0.118838426011461,1
831,1014,50,0.115860998683912,1
832,989,50,0.120959651608263,1
832,990,50,0.119785427381063,1
832,993,50,0.11482686028086,1
832,994,50,0.138787224436639,1
832,995,50,0.155531820197589,1
832,1002,50,0.176647870945143,1
832,1003,50,0.144650148873722,1
832,1004,50,0.139135395710715,1
832,1005,50,0.140784910706387,1
832,1006,50,0.133681764483591,1
832,1007,50,0.125848876519934,1
832,1008,50,0.12530424356293,1
832,1009,50,0.134778461600209,1
832,1010,50,0.131231764111442,1
832,1015,50,0.130640965838703,1
833,989,50,0.131443064645857,1
833,990,50,0.140030720191173,1
833,991,50,0.130762726858952,1
833,994,50,0.11874846253011,1
833,995,50,0.148081385965687,1
833,1001,50,0.174092020099059,1
833,1002,50,0.161114949846095,1
833,1003,50,0.136227251687366,1
833,1004,50,0.130452241556905,1
833,1008,50,0.154064964397591,1
833,1009,50,0.145919165097438,1
833,1010,50,0.142650696074036,1
833,1011,50,0.132183476227548,1
833,1012,50,0.125234595175875,1
834,989,50,0.14297182766318,1
834,990,50,0.16352954895827,1
834,991,50,0.151666158063069,1
834,992,50,0.116646138803653,1
834,995,50,0.133647552687109,1
834,996,50,0.161735684912864,1
834,1001,50,0.162923299437,1
834,1009,50,0.127192958489184,1
834,1010,50,0.119836762741085,1
834,1011,50,0.12984430794376,1
834,1012,50,0.128806707142029,1
835,989,50,0.14260368282393,1
835,990,50,0.16169256980549,1
835,991,50,0.146478813558923,1
835,996,50,0.12097946029731,1
835,997,50,0.150841176804774,1
836,989,50,0.124177032585835,1
836,990,50,0.130842703557716,1
836,991,50,0.118629916594349,1
836,997,50,0.118346282547372,1
837,998,50,0.153529529173135,1
837,1004,50,0.12414194930125,1
838,998,50,0.122761712352585,1
838,999,50,0.183497119708265,1
838,1003,50,0.116596440428041,1
839,999,50,0.128446405695707,1
839,1000,50,0.135653353217708,1
816,1007,51,0.119376075286774,1
817,1003,51,0.119590037392964,1
817,1004,51,0.140717747238113,1
818,997,51,0.121234170360756,1
818,998,51,0.141565457848287,1
818,999,51,0.131270721985026,1
818,1000,51,0.11446315532019,1
818,1001,51,0.123587317784792,1
818,1002,51,0.158571335164055,1
819,992,51,0.115359728148472,1
819,993,51,0.154027749500213,1
819,994,51,0.139201581699089,1
819,995,51,0.117441677896301,1
819,996,51,0.131796182203761,1
819,997,51,0.169784584157439,1
820,992,51,0.138960379701243,1
820,993,51,0.167735633188867,1
820,994,51,0.143345943373624,1
820,995,51,0.130555253806071,1
820,996,51,0.140632930247317,1
821,992,51,0.129468885001162,1
821,993,51,0.135182761418873,1
821,994,51,0.137908281577147,1
821,996,51,0.156400846935692,1
824,1015,51,0.114647003979356,1
825,1014,51,0.142084370129383,1
825,1015,51,0.164297082662955,1
826,1014,51,0.128797556516946,1
826,1015,51,0.168713595939864,1
827,995,51,0.144077510528754,1
827,1015,51,0.128867734862982,1
827,1016,51,0.142093968275383,1
828,994,51,0.115394893871121,1
828,995,51,0.148691192100568,1
828,1000,51,0.160313416328521,1
828,1003,51,0.123977155611691,1
828,1004,51,0.115054212683986,1
828,1005,51,0.132148864017613,1
829,994,51,0.114853617321,1
829,995,51,0.133226105751171,1
829,1001,51,0.170940978209123,1
829,1002,51,0.159167020836291,1
829,1003,51,0.137568872291568,1
829,1004,51,0.145563397744626,1
829,1005,51,0.166423584295841,1
829,1006,51,0.162984774678871,1
829,1012,51,0.114227111589765,1
829,1015,51,0.13782916458962,1
829,1016,51,0.132022003614273,1
830,989,51,0.12099302724724,1
830,994,51,0.119279210561795,1
830,995,51,0.12318074503094,1
830,1002,51,0.179911075709328,1
830,1003,51,0.164317503749048,1
830,1004,51,0.187186034633974,1
830,1005,51,0.209346846517943,1
830,1006,51,0.170648782380376,1
830,1007,51,0.127825470422212,1
830,1014,51,0.116793267193824,1
830,1015,51,0.154843933439413,1
831,989,51,0.125819917205804,1
831,990,51,0.116679691095624,1
831,993,51,0.117171045509674,1
831,994,51,0.126615526959649,1
831,995,51,0.126358920820736,1
831,996,51,0.147334167355299,1
831,1002,51,0.198605684985409,1
831,1003,51,0.167828093365865,1
831,1004,51,0.166114323787885,1
831,1005,51,0.16982537922216,1
831,1006,51,0.139517213491691,1
831,1015,51,0.129891132764005,1
832,989,51,0.132460915642872,1
832,990,51,0.135994093289174,1
832,991,51,0.117143581857559,1
832,994,51,0.122598838292226,1
832,995,51,0.128395541410335,1
832,996,51,0.146655878743124,1
832,1001,51,0.192635708834035,1
832,1002,51,0.187191758190975,1
832,1003,51,0.145860834278859,1
832,1004,51,0.12512194945011,1
832,1005,51,0.125814334971197,1
832,1006,51,0.128080934205098,1
832,1007,51,0.129745064291797,1
832,1008,51,0.123556686155653,1
833,989,51,0.140694393712322,1
833,990,51,0.149433970832377,1
833,991,51,0.126292911485356,1
833,995,51,0.126220059790679,1
833,996,51,0.141682378576505,1
833,1000,51,0.15849419669006,1
833,1001,51,0.163448253250486,1
833,1002,51,0.158039067916622,1
833,1003,51,0.130759229129674,1
833,1004,51,0.120858535434565,1
833,1005,51,0.136012476977404,1
833,1006,51,0.156835531069305,1
833,1007,51,0.176794504706931,1
833,1008,51,0.170205159605273,1
833,1009,51,0.13607081957285,1
833,1010,51,0.116118240773603,1
834,989,51,0.144351381553602,1
834,990,51,0.157915481482103,1
834,991,51,0.134315807409232,1
834,996,51,0.12539317068005,1
834,997,51,0.153903326908189,1
834,1000,51,0.157873602945686,1
834,1001,51,0.146214564233808,1
834,1002,51,0.150049594739189,1
834,1003,51,0.140465145233728,1
834,1004,51,0.135394368151811,1
834,1008,51,0.160601925998129,1
834,1009,51,0.123334421358751,1
835,989,51,0.143895534391323,1
835,990,51,0.165926588762853,1
835,991,51,0.151081577975715,1
835,997,51,0.131798054725496,1
835,998,51,0.185187688859716,1
835,1001,51,0.157164082084193,1
836,989,51,0.130023492963888,1
836,990,51,0.146959286148549,1
836,991,51,0.145814292103404,1
836,992,51,0.11978109349428,1
836,998,51,0.170976956535544,1
836,1004,51,0.124556530324159,1
837,989,51,0.116296354098901,1
837,990,51,0.114084693946097,1
837,998,51,0.165067937443924,1
837,999,51,0.224152628563574,1
837,1003,51,0.133372009347252,1
838,998,51,0.11787404198726,1
838,999,51,0.157041308253445,1
838,1000,51,0.150494077225529,1
838,1001,51,0.12316629481604,1
815,1012,52,0.128525204707845,1
816,1006,52,0.115307285763022,1
816,1007,52,0.131882765724495,1
816,1013,52,0.154645822995208,1
816,1015,52,0.119937278294604,1
817,1002,52,0.114366208157147,1
817,1003,52,0.128667999211233,1
817,1004,52,0.137555953069282,1
817,1005,52,0.141719452151487,1
817,1014,52,0.1462436766472,1
818,997,52,0.127463355338486,1
818,998,52,0.156900186065065,1
818,999,52,0.139067596291663,1
818,1000,52,0.118618763902002,1
818,1001,52,0.124299453110595,1
818,1002,52,0.150800040210932,1
818,1013,52,0.148366751212004,1
818,1019,52,0.11677788660649,1
818,1020,52,0.119641313868654,1
819,993,52,0.119751404014442,1
819,994,52,0.127524606819898,1
819,995,52,0.115494172853683,1
819,996,52,0.124476235650006,1
819,997,52,0.174018697329732,1
819,1020,52,0.116686933868374,1
820,992,52,0.119911451626899,1
820,993,52,0.12722149383613,1
820,994,52,0.124082417242312,1
820,995,52,0.129096524043791,1
820,996,52,0.139989395167471,1
821,992,52,0.125242768321059,1
821,993,52,0.118871931195967,1
821,994,52,0.122021606969418,1
821,995,52,0.1543082037933,1
821,996,52,0.153874579577651,1
821,1017,52,0.119519988592456,1
822,994,52,0.146427172000378,1
822,997,52,0.1408740498071,1
823,1017,52,0.119077472842782,1
823,1020,52,0.137503251592774,1
825,994,52,0.149547028748461,1
825,1013,52,0.128596030781525,1
825,1014,52,0.121702489224403,1
825,1015,52,0.135118129976845,1
826,995,52,0.132745633161545,1
826,1010,52,0.12194060568329,1
826,1015,52,0.136064024321019,1
826,1016,52,0.136599541983539,1
827,995,52,0.124820131921629,1
827,996,52,0.161804803340937,1
827,1005,52,0.135048081176337,1
828,995,52,0.124352284132632,1
828,996,52,0.17451162984386,1
828,999,52,0.154254619051823,1
828,1000,52,0.148174505647196,1
828,1005,52,0.121465833096932,1
829,996,52,0.15124342744871,1
829,999,52,0.161913068072454,1
829,1000,52,0.13995939948911,1
829,1001,52,0.146076880890376,1
829,1002,52,0.138251341691265,1
829,1003,52,0.124133740825468,1
829,1004,52,0.133971404732359,1
829,1005,52,0.15455326860328,1
829,1006,52,0.150053987510304,1
830,989,52,0.132642185168328,1
830,990,52,0.119206476635781,1
830,996,52,0.129240719994264,1
830,1000,52,0.148236216426392,1
830,1001,52,0.163503993158489,1
830,1002,52,0.170784369441614,1
830,1003,52,0.158518727902477,1
830,1004,52,0.171689174299411,1
830,1005,52,0.188689457603705,1
830,1006,52,0.153977250297696,1
830,1007,52,0.114600037836716,1
831,988,52,0.116070956655573,1
831,989,52,0.14896870217709,1
831,990,52,0.143556572626662,1
831,996,52,0.119235294627516,1
831,997,52,0.169481812702792,1
831,1000,52,0.149021733405854,1
831,1001,52,0.179852132493702,1
831,1002,52,0.202710111306461,1
831,1003,52,0.169057786633144,1
831,1004,52,0.145000651967316,1
831,1005,52,0.141672462455115,1
831,1006,52,0.121541028387995,1
832,988,52,0.117284327186217,1
832,989,52,0.158170544851536,1
832,990,52,0.166200436233969,1
832,991,52,0.12658816929933,1
832,997,52,0.136686961661778,1
832,998,52,0.150411014987805,1
832,999,52,0.144074012799475,1
832,1000,52,0.142571897061898,1
832,1001,52,0.171618913515311,1
832,1002,52,0.188043260952085,1
832,1003,52,0.142365271943387,1
832,1006,52,0.116272847473848,1
832,1007,52,0.123973021931634,1
832,1008,52,0.115097575105551,1
833,988,52,0.121420492161836,1
833,989,52,0.159373233764483,1
833,990,52,0.167142114460023,1
833,991,52,0.125534151546034,1
833,997,52,0.11806461523706,1
833,998,52,0.130898266812725,1
833,999,52,0.137515652632945,1
833,1000,52,0.136938868831054,1
833,1001,52,0.14396511211718,1
833,1002,52,0.14388376930193,1
833,1003,52,0.115818660849711,1
833,1005,52,0.11594354273952,1
833,1006,52,0.13617129979577,1
833,1007,52,0.168108147245499,1
833,1008,52,0.17081768619626,1
833,1009,52,0.121473617605529,1
834,988,52,0.12156531228622,1
834,989,52,0.147219496008537,1
834,990,52,0.153283828412378,1
834,991,52,0.123999637649379,1
834,998,52,0.134077961818269,1
834,999,52,0.139982329047716,1
834,1000,52,0.126969751542981,1
834,1001,52,0.123100038166468,1
834,1002,52,0.119576541104231,1
834,1005,52,0.117523444678736,1
834,1006,52,0.126878775251132,1
834,1007,52,0.146982698558672,1
834,1008,52,0.149393905933364,1
835,988,52,0.116729648562294,1
835,989,52,0.141954824600536,1
835,990,52,0.162173595907831,1
835,991,52,0.15510974908774,1
835,992,52,0.11549798855835,1
835,998,52,0.138324888221052,1
835,999,52,0.147030335982689,1
835,1000,52,0.128325999015077,1
835,1001,52,0.121059307450545,1
835,1002,52,0.115502687527988,1
836,989,52,0.133199972884943,1
836,990,52,0.155447650934438,1
836,991,52,0.168324818030929,1
836,992,52,0.137341390342913,1
836,998,52,0.149101521674757,1
836,999,52,0.173835355075815,1
836,1000,52,0.149766078460875,1
836,1001,52,0.127966286412068,1
836,1002,52,0.114845891696735,1
837,989,52,0.122968537677822,1
837,990,52,0.120123329227761,1
837,991,52,0.115457641014548,1
837,998,52,0.156173400317636,1
837,999,52,0.194773834233918,1
837,1000,52,0.161946537926361,1
837,1001,52,0.120521870158825,1
838,989,52,0.115716626080445,1
838,999,52,0.121217223450209,1
815,1012,53,0.127177695670513,1
815,1013,53,0.12883072017233,1
816,1007,53,0.133820825720374,1
816,1014,53,0.171844299181772,1
816,1015,53,0.128886730948257,1
817,1002,53,0.129325077687276,1
817,1003,53,0.141635118012208,1
817,1004,53,0.139732388615106,1
817,1005,53,0.135099322321429,1
817,1014,53,0.155900188797298,1
818,997,53,0.142706848172358,1
818,998,53,0.173649539679984,1
818,999,53,0.152624889191465,1
818,1000,53,0.131351888147281,1
818,1001,53,0.135014093140315,1
818,1002,53,0.152292157389056,1
818,1003,53,0.162710350141308,1
818,1013,53,0.145159698546141,1
819,994,53,0.121083921101026,1
819,995,53,0.11712170044005,1
819,996,53,0.120979778272699,1
819,997,53,0.173314817587176,1
820,994,53,0.118542991544493,1
820,995,53,0.130522926308191,1
820,996,53,0.134093707488457,1
820,1018,53,0.143326535098029,1
820,1019,53,0.1601119259237,1
820,1020,53,0.115643456410379,1
821,992,53,0.114543108465221,1
821,994,53,0.116606804070349,1
821,995,53,0.146994758069721,1
821,996,53,0.144912290139776,1
821,1018,53,0.183420369870857,1
821,1020,53,0.142944717317053,1
822,994,53,0.134946705911582,1
822,995,53,0.17433714379337,1
822,996,53,0.148828051063362,1
822,997,53,0.130378365274864,1
822,1018,53,0.14586042208854,1
822,1020,53,0.139259653426611,1
823,994,53,0.178667756607788,1
823,1019,53,0.131193183097578,1
824,994,53,0.180138993402034,1
825,994,53,0.130303605727853,1
825,995,53,0.151057788705872,1
826,995,53,0.114134934057557,1
826,996,53,0.14280580917953,1
826,1017,53,0.115342133510282,1
827,996,53,0.129935036921418,1
827,997,53,0.149722928022903,1
827,1005,53,0.131711989386877,1
828,996,53,0.13320372970528,1
828,997,53,0.154103486527124,1
828,998,53,0.14820055607536,1
828,999,53,0.147629542937936,1
828,1000,53,0.151997747509452,1
828,1001,53,0.141857359255378,1
828,1002,53,0.127407615430484,1
828,1005,53,0.114958690521761,1
828,1006,53,0.137530868344151,1
829,996,53,0.125092436623265,1
829,997,53,0.162619150089,1
829,998,53,0.160822824678546,1
829,999,53,0.136411394768188,1
829,1000,53,0.130101031851336,1
829,1001,53,0.134352869207348,1
829,1002,53,0.128497187543015,1
829,1003,53,0.116583309222162,1
829,1004,53,0.122282594102579,1
829,1005,53,0.137546036947892,1
829,1006,53,0.137372069079517,1
829,1007,53,0.136595584956476,1
829,1008,53,0.117421704331126,1
830,989,53,0.141591802698108,1
830,990,53,0.136115559887767,1
830,996,53,0.117721178263221,1
830,997,53,0.164883853247433,1
830,998,53,0.176784164618356,1
830,999,53,0.142058437469881,1
830,1000,53,0.125962158196478,1
830,1001,53,0.148878726918873,1
830,1002,53,0.168425792882232,1
830,1003,53,0.152141554823338,1
830,1004,53,0.145585644244989,1
830,1005,53,0.153806815489198,1
830,1006,53,0.136717640398382,1
831,988,53,0.129085807095496,1
831,989,53,0.182804074682668,1
831,990,53,0.182388068658942,1
831,991,53,0.12679029565493,1
831,997,53,0.135818900626708,1
831,998,53,0.15011509766932,1
831,999,53,0.131888289074771,1
831,1000,53,0.122221519274161,1
831,1001,53,0.159759691630765,1
831,1002,53,0.204660454573847,1
831,1003,53,0.169851276551063,1
831,1004,53,0.125559142056235,1
831,1005,53,0.116150733147611,1
832,988,53,0.132712363514364,1
832,989,53,0.189819365483173,1
832,990,53,0.194612903356492,1
832,991,53,0.132867806372114,1
832,998,53,0.117516767195567,1
832,999,53,0.118374476365196,1
832,1000,53,0.117752987578986,1
832,1001,53,0.147935894559926,1
832,1002,53,0.183047278747778,1
832,1003,53,0.14292303610627,1
833,988,53,0.131542814703069,1
833,989,53,0.170777232660661,1
833,990,53,0.173219189433155,1
833,991,53,0.126422739658993,1
833,999,53,0.119218983667748,1
833,1000,53,0.118825612780971,1
833,1001,53,0.128518904084396,1
833,1002,53,0.135640304449894,1
833,1006,53,0.114397063546746,1
833,1007,53,0.1440954349192,1
833,1008,53,0.161519284995359,1
834,988,53,0.125305951208537,1
834,989,53,0.147701735128103,1
834,990,53,0.152256862120878,1
834,991,53,0.1315322979615,1
834,1007,53,0.119064247421973,1
834,1008,53,0.133266359080044,1
835,988,53,0.119152043959933,1
835,989,53,0.144505234534407,1
835,990,53,0.161329512572464,1
835,991,53,0.164242708871438,1
835,992,53,0.121458602101049,1
836,988,53,0.113838239465899,1
836,989,53,0.144389420831618,1
836,990,53,0.158919141355276,1
836,991,53,0.171909578351444,1
836,992,53,0.138696813434371,1
836,998,53,0.123979075240891,1
836,999,53,0.136325659181824,1
836,1000,53,0.117829666755197,1
837,989,53,0.137920282203864,1
837,990,53,0.132660439311029,1
837,991,53,0.126224982520775,1
837,998,53,0.13315953112621,1
837,999,53,0.152910972826624,1
837,1000,53,0.120998609481847,1
838,989,53,0.120166609211262,1
816,1002,54,0.117184753781999,1
816,1003,54,0.126034951006823,1
817,997,54,0.114038187101241,1
817,998,54,0.133571898098262,1
817,999,54,0.129268996250152,1
817,1000,54,0.124619795649701,1
817,1001,54,0.131337473262981,1
817,1002,54,0.146737810401686,1
817,1003,54,0.159906266508222,1
817,1004,54,0.145353369111767,1
818,997,54,0.155310273789529,1
818,998,54,0.186543700794486,1
818,999,54,0.164430396789004,1
818,1000,54,0.145019224085406,1
818,1001,54,0.147453631886629,1
818,1002,54,0.162800678705513,1
818,1003,54,0.169351266140313,1
819,995,54,0.114927411164978,1
819,996,54,0.118750017076456,1
819,997,54,0.16454612805373,1
819,998,54,0.20182244178907,1
819,999,54,0.170498945310965,1
819,1000,54,0.153571560808813,1
820,994,54,0.117055926641994,1
820,995,54,0.124798250504121,1
820,996,54,0.125367815086995,1
820,997,54,0.169099983144949,1
821,995,54,0.128255267156327,1
821,996,54,0.125735371082932,1
821,997,54,0.150558932428016,1
822,994,54,0.118577415324567,1
822,995,54,0.133037122378316,1
822,996,54,0.117406170644531,1
822,997,54,0.115443697204897,1
823,994,54,0.136936018829419,1
823,995,54,0.135806299379811,1
823,996,54,0.116011330381705,1
823,997,54,0.123932721495296,1
824,994,54,0.132613649821383,1
824,995,54,0.126826038444025,1
824,996,54,0.128399887073985,1
825,996,54,0.132404068709441,1
826,997,54,0.151442798017605,1
827,997,54,0.114378974280172,1
827,998,54,0.141155458026354,1
827,999,54,0.182355258309545,1
827,1000,54,0.196259167937076,1
828,998,54,0.12203963735166,1
828,999,54,0.140554119458313,1
828,1000,54,0.151747194679796,1
828,1001,54,0.128162324127812,1
829,997,54,0.127306852562773,1
829,998,54,0.126912881055818,1
829,999,54,0.11393437402517,1
829,1000,54,0.117230612899211,1
829,1001,54,0.117569186027285,1
830,989,54,0.149918047143078,1
830,990,54,0.151874938348105,1
830,991,54,0.114335211445154,1
830,997,54,0.133244736753593,1
830,998,54,0.128831909635823,1
830,1001,54,0.126062826849258,1
830,1002,54,0.151440477974952,1
830,1003,54,0.132135980125926,1
831,988,54,0.14267337831845,1
831,989,54,0.232775626484533,1
831,990,54,0.231618737804466,1
831,991,54,0.14070214289032,1
831,1001,54,0.131443523943641,1
831,1002,54,0.181597770271779,1
831,1003,54,0.151873642892817,1
832,988,54,0.149470738208837,1
832,989,54,0.227420473413065,1
832,990,54,0.217561493378245,1
832,991,54,0.131814589445723,1
832,1001,54,0.119163125991082,1
832,1002,54,0.156449497170207,1
832,1003,54,0.128349682293124,1
833,988,54,0.1376343752217,1
833,989,54,0.171794742128555,1
833,990,54,0.163098079909147,1
833,991,54,0.120169141237507,1
833,1002,54,0.116797106452225,1
834,988,54,0.1254841116413,1
834,989,54,0.141358974052172,1
834,990,54,0.143799576485046,1
834,991,54,0.134849464326883,1
835,988,54,0.121383006396534,1
835,989,54,0.144885603760834,1
835,990,54,0.15261656294702,1
835,991,54,0.158332747630518,1
835,992,54,0.117894498403952,1
836,988,54,0.126273291226169,1
836,989,54,0.157677624114274,1
836,990,54,0.155166325153248,1
836,991,54,0.152580513959402,1
836,992,54,0.120524131317146,1
837,988,54,0.126033372906744,1
837,989,54,0.15679745646069,1
837,990,54,0.149016198278712,1
837,991,54,0.132854580951305,1
838,989,54,0.124271789251754,1
838,990,54,0.120583180524568,1
816,1001,55,0.119006858752694,1
817,997,55,0.118285820115999,1
817,998,55,0.14331255595778,1
817,999,55,0.141133399955851,1
817,1000,55,0.139419312402482,1
817,1001,55,0.153722057382734,1
817,1002,55,0.175518127941802,1
817,1003,55,0.183350485946477,1
818,997,55,0.150958898359897,1
818,998,55,0.18262114461907,1
818,999,55,0.168099561909997,1
818,1000,55,0.159501389623111,1
818,1001,55,0.17422164806597,1
819,990,55,0.12394571137878,1
819,996,55,0.116883171790844,1
819,997,55,0.148051201857466,1
819,998,55,0.166676987127131,1
819,999,55,0.153661053215513,1
820,989,55,0.119547310922177,1
820,990,55,0.128699054807557,1
820,994,55,0.114551305164137,1
820,995,55,0.118899913030198,1
820,996,55,0.120105416614181,1
820,997,55,0.151798294502493,1
820,998,55,0.175351744375298,1
821,997,55,0.138922093109035,1
821,998,55,0.17931948838655,1
822,998,55,0.145450810903192,1
822,1003,55,0.163351129434449,1
823,998,55,0.138464856276537,1
824,997,55,0.136135297915617,1
824,999,55,0.186728903793272,1
825,997,55,0.147395324621781,1
825,1000,55,0.176060758831543,1
826,997,55,0.11978207097418,1
826,998,55,0.15970691949306,1
826,999,55,0.184064293587289,1
826,1000,55,0.18324788588763,1
827,998,55,0.134534232947734,1
827,999,55,0.179877994492007,1
827,1000,55,0.189817916928623,1
827,1001,55,0.16377980736627,1
828,999,55,0.136045346211132,1
828,1000,55,0.147317738626868,1
828,1001,55,0.122538528960115,1
830,989,55,0.151826052576265,1
830,990,55,0.159024956498611,1
830,991,55,0.125568174912656,1
830,992,55,0.11412359293535,1
831,988,55,0.148234426342721,1
831,989,55,0.266863412564635,1
831,990,55,0.261482421048595,1
831,991,55,0.153486319850831,1
831,992,55,0.11653776808034,1
832,987,55,0.115144293934,1
832,988,55,0.15681621700864,1
832,989,55,0.247300341840031,1
832,990,55,0.224350103057001,1
832,991,55,0.132165975804287,1
833,987,55,0.114642411001515,1
833,988,55,0.135554239111274,1
833,989,55,0.162530470286071,1
833,990,55,0.147792134353505,1
833,991,55,0.116786460165127,1
834,988,55,0.118451626616057,1
834,989,55,0.128586197098199,1
834,990,55,0.130589230065228,1
834,991,55,0.133187312753715,1
835,988,55,0.11637020682721,1
835,989,55,0.136177930171474,1
835,990,55,0.135930262674051,1
835,991,55,0.140904610775041,1
836,988,55,0.129563959642469,1
836,989,55,0.154907234095554,1
836,990,55,0.141436454055289,1
836,991,55,0.124150593521084,1
837,988,55,0.133289276861784,1
837,989,55,0.158171322124709,1
837,990,55,0.155890543543832,1
837,991,55,0.13107106877134,1
838,989,55,0.119193875388884,1
838,990,55,0.127686032325708,1
838,991,55,0.116948922035167,1
817,997,56,0.116963937539647,1
817,998,56,0.142684036382414,1
817,999,56,0.140994609586991,1
817,1000,56,0.144509109123406,1
817,1001,56,0.170778139479363,1
818,996,56,0.114019662090616,1
818,997,56,0.136021757148016,1
818,998,56,0.16636239169876,1
818,999,56,0.16256371637952,1
818,1000,56,0.169999229321872,1
819,990,56,0.146429256505706,1
819,991,56,0.118776091058353,1
819,995,56,0.115258694412838,1
819,996,56,0.11739886898745,1
819,997,56,0.129740895281142,1
819,998,56,0.144586424250395,1
819,999,56,0.151685307247606,1
820,989,56,0.14377598742193,1
820,990,56,0.147301722088756,1
820,991,56,0.127883318389275,1
820,995,56,0.115801549063037,1
820,996,56,0.117671091251023,1
820,997,56,0.130251893508111,1
820,998,56,0.146082757546639,1
821,989,56,0.119961585746562,1
821,990,56,0.123861341908902,1
821,991,56,0.118450013185379,1
821,997,56,0.120080779409968,1
821,998,56,0.149056039417266,1
822,998,56,0.127496424778941,1
822,999,56,0.1597673583707,1
822,1002,56,0.155456283377405,1
823,998,56,0.115048889540437,1
823,999,56,0.144563200270133,1
823,1002,56,0.147535068916808,1
824,998,56,0.128057404026313,1
824,999,56,0.169916708819997,1
824,1000,56,0.196475591408314,1
824,1001,56,0.169518450533723,1
825,998,56,0.136970678146819,1
825,999,56,0.17301837030971,1
825,1000,56,0.183985588790082,1
825,1001,56,0.160709684324397,1
826,998,56,0.12756681510857,1
826,999,56,0.158540138245335,1
826,1000,56,0.164608192138914,1
826,1001,56,0.159929302058624,1
827,998,56,0.119097199093765,1
827,999,56,0.155503308404377,1
827,1000,56,0.16378065530064,1
828,999,56,0.118105045218927,1
828,1000,56,0.125315349147812,1
829,991,56,0.11474882676503,1
830,989,56,0.144337025553633,1
830,990,56,0.1545334363605,1
830,991,56,0.141856793965798,1
830,992,56,0.128543835710266,1
831,988,56,0.150311618236581,1
831,989,56,0.255822317802222,1
831,990,56,0.247585389110959,1
831,991,56,0.163379582343331,1
831,992,56,0.12483127283711,1
832,987,56,0.129489788938771,1
832,988,56,0.161512289536801,1
832,989,56,0.233497430617535,1
832,990,56,0.208221001657335,1
832,991,56,0.137544411740349,1
833,987,56,0.12549720751658,1
833,988,56,0.137621032032228,1
833,989,56,0.15028788785107,1
833,990,56,0.136181321908957,1
833,991,56,0.117177310802524,1
834,988,56,0.115125203633794,1
834,989,56,0.11645239757683,1
834,990,56,0.117638775530008,1
834,991,56,0.122233684777006,1
835,989,56,0.121176098633233,1
835,990,56,0.118120567128656,1
835,991,56,0.117222215993569,1
836,988,56,0.127011830286124,1
836,989,56,0.139530144490843,1
836,990,56,0.128365109987923,1
837,988,56,0.131696973882397,1
837,989,56,0.144444995863493,1
837,990,56,0.150000261446431,1
837,991,56,0.120835252569971,1
838,990,56,0.126216762268126,1
817,997,57,0.116119018046776,1
817,998,57,0.130842020499473,1
817,999,57,0.130666792506408,1
818,997,57,0.120267548731966,1
818,998,57,0.145723280480956,1
818,999,57,0.15595895535993,1
819,996,57,0.118923560977646,1
819,997,57,0.117678993528282,1
819,998,57,0.142443800087601,1
819,999,57,0.175838435150309,1
820,990,57,0.16315555101649,1
820,991,57,0.154789665639693,1
820,995,57,0.119325152117071,1
820,996,57,0.121969258798897,1
820,997,57,0.117686542499554,1
820,998,57,0.137323265745741,1
821,989,57,0.139420207444317,1
821,990,57,0.137387178798927,1
821,998,57,0.126145983301911,1
821,999,57,0.165857270128054,1
822,999,57,0.13350133111564,1
822,1000,57,0.151682233485512,1
823,999,57,0.129432612253085,1
823,1000,57,0.148137797155067,1
824,999,57,0.17116417337846,1
824,1000,57,0.202549498404423,1
824,1001,57,0.147660692749191,1
825,998,57,0.114037857348986,1
825,999,57,0.175922557305996,1
825,1000,57,0.198345369133625,1
825,1001,57,0.140954733117839,1
826,999,57,0.140854170456855,1
826,1000,57,0.1520300514536,1
827,999,57,0.123389124902523,1
830,989,57,0.142988868788657,1
830,990,57,0.153723576598481,1
830,991,57,0.162588330030001,1
830,992,57,0.137003052752164,1
831,988,57,0.154199197119209,1
831,989,57,0.213784675922781,1
831,990,57,0.206774048761314,1
831,991,57,0.17269892281244,1
831,992,57,0.131949752539775,1
832,988,57,0.164229012375979,1
832,989,57,0.196424962660268,1
832,990,57,0.179323904711397,1
832,991,57,0.149145190294845,1
833,988,57,0.145637603778923,1
833,989,57,0.143223923262316,1
833,990,57,0.130863053982611,1
833,991,57,0.12208641506444,1
836,990,57,0.116446273606375,1
824,1000,58,0.176723619748919,1
825,1000,58,0.185039476997849,1
831,989,58,0.166066768801932,1
831,990,58,0.165955924936704,1
832,989,58,0.156963168745817,1
832,990,58,0.149973292422698,1
