x,y,z,signal,mito.p
159,97,23,0.21143330680555,2
159,98,23,0.198470015486108,1
158,97,24,0.2593869867889,2
158,98,24,0.263285105966829,2
159,96,24,0.242153050458031,2
159,97,24,0.336391981781847,2
159,98,24,0.312970527026071,2
159,99,24,0.225544936800154,1
160,96,24,0.239575235756375,1
160,97,24,0.285383453352162,2
160,98,24,0.224886798406147,1
162,100,24,0.180184004584875,1
162,101,24,0.202469981003444,1
162,102,24,0.209562033418224,1
162,109,24,0.188452978129229,1
163,100,24,0.167086515874415,1
163,101,24,0.159276439700702,1
163,102,24,0.164845778638818,1
163,108,24,0.191676742168313,1
163,109,24,0.142957930960995,1
163,110,24,0.136323916205618,1
163,111,24,0.167687571797665,1
164,100,24,0.187711518406441,1
164,101,24,0.160612701830756,1
164,102,24,0.178842089559017,1
164,108,24,0.181449440641249,1
164,109,24,0.153258567034253,1
164,110,24,0.180660791015363,1
164,111,24,0.195840759432634,1
165,109,24,0.219803102101945,1
165,110,24,0.213772168890814,1
165,111,24,0.182127328839972,1
166,110,24,0.200362652108827,1
166,111,24,0.13852840424687,1
167,109,24,0.205511168284918,1
167,110,24,0.15025285167395,1
168,109,24,0.14267983204116,1
169,109,24,0.132698278382318,1
157,97,25,0.197371422294022,2
157,98,25,0.191254918372656,2
158,96,25,0.2467709010405,2
158,97,25,0.332838100404663,2
158,98,25,0.332156455385603,2
158,99,25,0.278931897585733,2
159,95,25,0.199022868695761,2
159,96,25,0.324437803024657,2
159,97,25,0.474763683046278,2
159,98,25,0.425233669514187,2
159,99,25,0.2487083604162,2
160,95,25,0.179577389980751,1
160,96,25,0.281834706688667,2
160,97,25,0.356097882340438,2
160,98,25,0.274739144767741,2
160,99,25,0.152550600719105,1
161,96,25,0.174656744389901,1
161,97,25,0.178910925342299,2
161,98,25,0.135241351328511,1
161,100,25,0.15405237492756,1
161,101,25,0.202429657013374,1
161,110,25,0.164692008096077,1
161,111,25,0.124821969112766,1
162,99,25,0.138269171866781,1
162,100,25,0.198958967419441,1
162,101,25,0.21657105892588,1
162,110,25,0.132052823673272,1
162,111,25,0.147484581491157,1
162,112,25,0.254278700387949,1
162,113,25,0.337518792345489,3
162,114,25,0.278969748433889,3
163,99,25,0.145501722296029,1
163,100,25,0.183616654900792,1
163,101,25,0.17790426236823,1
163,102,25,0.178838002986425,1
163,109,25,0.155397222393118,1
163,110,25,0.14575433607728,1
163,111,25,0.20629696790917,1
163,112,25,0.25121089738873,1
163,113,25,0.246727067544285,3
164,97,25,0.126608825922748,1
164,100,25,0.180560216577513,1
164,101,25,0.164308553330691,1
164,102,25,0.173751939532104,1
164,108,25,0.167159532445219,1
164,109,25,0.153450388631876,1
164,110,25,0.21544257604723,1
164,111,25,0.271353601916859,1
164,112,25,0.194782054486567,1
164,113,25,0.13030984746697,1
165,110,25,0.275792444132195,1
165,111,25,0.261821995210301,1
165,112,25,0.144163658305437,1
166,111,25,0.172024932756449,1
167,110,25,0.175812832243062,1
167,111,25,0.121722721880636,1
168,108,25,0.185527745872939,1
168,109,25,0.144995034402111,1
168,110,25,0.125961722452426,1
169,109,25,0.144991360019838,1
170,109,25,0.178624735715344,1
157,96,26,0.176939925451494,2
157,97,26,0.193253523237971,2
157,98,26,0.198745146635646,2
158,95,26,0.246314571026704,2
158,96,26,0.304523758131808,2
158,97,26,0.377944817184879,2
158,98,26,0.361772494686042,2
158,99,26,0.264988535456234,2
159,93,26,0.300137841153439,2
159,94,26,0.260538057697035,2
159,95,26,0.284492109452499,2
159,96,26,0.436011998836634,2
159,97,26,0.592883202033836,2
159,98,26,0.489314566598603,2
159,99,26,0.244776535847038,2
160,95,26,0.212729869119446,2
160,96,26,0.331628545578686,2
160,97,26,0.418880050167566,2
160,98,26,0.305408436325169,2
160,99,26,0.154166245447417,2
160,100,26,0.129726939694625,1
160,101,26,0.171379654700397,1
160,111,26,0.174240161299729,1
161,96,26,0.161175577153595,2
161,97,26,0.172586253532942,2
161,98,26,0.135958574260538,2
161,99,26,0.120190045175117,1
161,100,26,0.15905137200963,1
161,110,26,0.199183104738078,1
161,111,26,0.14200870376367,1
161,112,26,0.170713955558252,1
161,113,26,0.250714879335642,3
161,114,26,0.237500999855945,3
162,99,26,0.133099469108291,1
162,100,26,0.185184933073011,1
162,101,26,0.208973190105284,1
162,109,26,0.204365326305402,1
162,110,26,0.128902193973655,1
162,111,26,0.148991937934219,1
162,112,26,0.284611479768898,3
162,113,26,0.412391986115734,3
162,114,26,0.337667934579791,3
162,115,26,0.180154197336374,3
163,99,26,0.136463401409587,1
163,100,26,0.176760657993303,1
163,101,26,0.17951474882912,1
163,102,26,0.180910130827794,1
163,108,26,0.198153735965862,1
163,109,26,0.154799605314815,1
163,110,26,0.141099082167573,1
163,111,26,0.212478197487495,1
163,112,26,0.286936138953455,3
163,113,26,0.315439146623775,3
163,114,26,0.256473272307811,3
164,97,26,0.124658094018775,1
164,100,26,0.161169311860746,1
164,101,26,0.157253444945364,1
164,102,26,0.158776617719812,1
164,103,26,0.188825892599314,1
164,108,26,0.149504961782185,1
164,109,26,0.144845373985694,1
164,110,26,0.216629001107873,1
164,111,26,0.301596806453044,1
164,112,26,0.228867402755353,1
164,113,26,0.159661237028842,3
164,114,26,0.149369504266476,1
165,96,26,0.133948722487945,1
165,101,26,0.174966982377757,1
165,102,26,0.178712237831647,1
165,103,26,0.190567373143601,1
165,104,26,0.206148791377902,1
165,110,26,0.286420712624772,1
165,111,26,0.301982098409567,1
165,112,26,0.167833216302688,1
166,95,26,0.144813647107993,1
166,103,26,0.214191307560965,1
166,104,26,0.184883174428862,1
166,105,26,0.190080717699188,1
166,111,26,0.189150039066221,1
166,112,26,0.118797678054205,1
167,104,26,0.179639960471184,1
167,105,26,0.15952654500944,1
167,106,26,0.178457704421196,1
167,110,26,0.179882999660167,1
167,111,26,0.145305083960106,1
167,112,26,0.131038611727931,1
168,104,26,0.170861272378283,1
168,105,26,0.174279272272574,1
168,108,26,0.161405909103885,1
168,109,26,0.136496800602297,1
168,110,26,0.140287844512202,1
168,111,26,0.165579006332091,1
168,112,26,0.153102594217521,1
169,109,26,0.160588453263129,1
169,110,26,0.126586285000729,1
169,111,26,0.129866766427716,1
170,110,26,0.124566210908223,1
157,95,27,0.16245851363323,1
157,96,27,0.165616892510846,2
157,97,27,0.180049724755793,2
157,98,27,0.195951297099339,2
158,93,27,0.252955475248843,2
158,94,27,0.2981408850494,2
158,95,27,0.301186971507238,2
158,96,27,0.321270485505551,2
158,97,27,0.364116467931263,2
158,98,27,0.333927083673881,2
158,99,27,0.230481068970134,2
159,92,27,0.215397611971853,2
159,93,27,0.337725617670726,2
159,94,27,0.353192929847846,2
159,95,27,0.362297083416674,2
159,96,27,0.484611969686535,2
159,97,27,0.591843304743185,2
159,98,27,0.452294741233513,2
159,99,27,0.223945332163686,2
159,100,27,0.148873380221592,1
159,101,27,0.160011799006767,1
159,111,27,0.205080441178369,1
160,93,27,0.31709560997054,2
160,94,27,0.261941318419236,2
160,95,27,0.238421314846605,2
160,96,27,0.33998036937717,2
160,97,27,0.417170708691299,2
160,98,27,0.29830470125906,2
160,99,27,0.167691387502333,2
160,100,27,0.152945879458215,1
160,101,27,0.187580100355859,1
160,112,27,0.143556054444547,1
160,113,27,0.134039392581271,1
161,96,27,0.144874933920003,2
161,97,27,0.164445000103165,2
161,98,27,0.137834758601093,2
161,99,27,0.130006522499609,1
161,100,27,0.162905693021943,1
161,111,27,0.162203391379466,1
161,112,27,0.171628287900853,1
161,113,27,0.228719343992748,3
161,114,27,0.208257957463655,1
162,99,27,0.123796745797472,1
162,100,27,0.160293536978277,1
162,101,27,0.1923903142718,1
162,110,27,0.122736556966257,1
162,111,27,0.142491743710141,1
162,112,27,0.256325048669078,3
162,113,27,0.379208451380715,3
162,114,27,0.321524983585404,3
162,115,27,0.167214648179311,1
163,99,27,0.125115849033388,1
163,100,27,0.156244862342095,1
163,101,27,0.170996058612615,1
163,102,27,0.173598545849083,1
163,107,27,0.192977155517476,1
163,108,27,0.172062677612808,1
163,109,27,0.143233144548597,1
163,110,27,0.133666748979111,1
163,111,27,0.194690100714818,1
163,112,27,0.277033890712,3
163,113,27,0.331192848634576,3
163,114,27,0.279036994340226,3
163,115,27,0.166743267330436,1
164,97,27,0.121165051932683,1
164,98,27,0.137926512166115,1
164,99,27,0.141034933577061,1
164,100,27,0.140553860367255,1
164,101,27,0.144813764876655,1
164,102,27,0.141536380765494,1
164,103,27,0.155535317926868,1
164,107,27,0.171818507844665,1
164,108,27,0.13648835658919,1
164,109,27,0.138805513909939,1
164,110,27,0.195130072661381,1
164,111,27,0.277972695382686,1
164,112,27,0.24724934800913,1
164,113,27,0.199103869981889,3
164,114,27,0.179273817699198,1
164,115,27,0.1565161306795,1
165,96,27,0.126536186211664,1
165,97,27,0.181011046794766,1
165,100,27,0.18088917978272,1
165,101,27,0.147147574686295,1
165,102,27,0.146563760095248,1
165,103,27,0.148355304098001,1
165,104,27,0.154509187792873,1
165,105,27,0.194561933079324,1
165,107,27,0.22302711345522,1
165,108,27,0.196978875787884,1
165,109,27,0.201655422271788,1
165,110,27,0.253852024523393,1
165,111,27,0.285705880396596,1
165,112,27,0.190572778725214,1
165,113,27,0.1214994913807,1
165,114,27,0.117773137797155,1
165,115,27,0.135731881361922,1
166,95,27,0.134707717964592,1
166,101,27,0.212141167128901,1
166,102,27,0.181761150737387,1
166,103,27,0.159417891641336,1
166,104,27,0.144365690446107,1
166,105,27,0.15021136177412,1
166,106,27,0.187881164164899,1
166,110,27,0.232143750502283,1
166,111,27,0.185616154807943,1
166,112,27,0.133241910305691,1
167,94,27,0.115806036049082,1
167,103,27,0.18175865404174,1
167,104,27,0.135441157641457,1
167,105,27,0.123587941958704,1
167,106,27,0.13814744617713,1
167,107,27,0.166082490918387,1
167,108,27,0.189386388995169,1
167,109,27,0.197589788948193,1
167,110,27,0.163722807333577,1
167,111,27,0.155882287960585,1
167,112,27,0.168497655320143,1
167,113,27,0.141420885038094,1
168,94,27,0.1315361372199,1
168,103,27,0.176026441043265,1
168,104,27,0.125321496671999,1
168,105,27,0.122738535479788,1
168,106,27,0.149428058845515,1
168,107,27,0.157216430254713,1
168,108,27,0.135709976390681,1
168,109,27,0.122312707549603,1
168,110,27,0.135774996469296,1
168,111,27,0.196908367689593,1
168,112,27,0.215895467216078,1
168,113,27,0.150476941885122,1
169,110,27,0.134223900744948,1
169,111,27,0.155182742104812,1
169,112,27,0.141252546511791,1
157,94,28,0.165910148257556,2
157,95,28,0.154287700269144,2
157,96,28,0.14764580679024,2
157,97,28,0.161008286768389,2
157,98,28,0.174931722440178,1
158,93,28,0.249944342530061,2
158,94,28,0.326126770522296,2
158,95,28,0.303056313488497,2
158,96,28,0.290110428377386,2
158,97,28,0.304990969970027,2
158,98,28,0.268611735468219,2
158,99,28,0.190760984824895,1
158,100,28,0.163793397869932,1
158,101,28,0.181889695232602,1
158,102,28,0.239268707481391,1
158,111,28,0.157173856883187,1
159,92,28,0.170156909784211,2
159,93,28,0.316129954044784,2
159,94,28,0.390293426746808,2
159,95,28,0.383947485916988,2
159,96,28,0.439389133005007,2
159,97,28,0.478099598182745,2
159,98,28,0.353545906083354,2
159,99,28,0.211301570779579,2
159,100,28,0.17480230645686,1
159,101,28,0.199340396563831,1
159,113,28,0.161261583607883,1
160,93,28,0.309213824458177,2
160,94,28,0.294216173707458,2
160,95,28,0.256059833640929,2
160,96,28,0.306294221543958,2
160,97,28,0.351363393674542,2
160,98,28,0.270025454047657,2
160,99,28,0.202296366441056,1
160,100,28,0.196647886961681,1
160,113,28,0.172989081243324,1
160,114,28,0.14020002442051,1
161,96,28,0.133276816937282,2
161,97,28,0.151048685188254,2
161,98,28,0.141063021403088,1
161,99,28,0.14600314593073,1
161,100,28,0.167421873918,1
161,112,28,0.176004488964558,1
161,113,28,0.195519851603948,1
161,114,28,0.172902203300933,1
161,115,28,0.114447150558944,1
162,100,28,0.134822660179278,1
162,101,28,0.166958242247124,1
162,109,28,0.149615193250367,1
162,110,28,0.114952825642364,1
162,111,28,0.128865862341247,1
162,112,28,0.196085612259021,1
162,113,28,0.27876355905943,3
162,114,28,0.252143130568043,1
162,115,28,0.144655377802341,1
163,100,28,0.123298407701731,1
163,101,28,0.138904604462641,1
163,102,28,0.147446530436274,1
163,106,28,0.192180556506865,1
163,107,28,0.155631004965221,1
163,108,28,0.135187012867592,1
163,109,28,0.118425847055816,1
163,110,28,0.117113091550814,1
163,111,28,0.160086028594797,1
163,112,28,0.227767514107979,1
163,113,28,0.283139300825351,3
163,114,28,0.249027607706744,1
163,115,28,0.146937074978785,1
164,98,28,0.114676858335322,1
164,99,28,0.114791800550008,1
164,100,28,0.113777070422551,1
164,101,28,0.116025085761495,1
164,103,28,0.1191491232971,1
164,104,28,0.151284776026144,1
164,105,28,0.184197831473798,1
164,106,28,0.167624589116913,1
164,107,28,0.131869328320094,1
164,108,28,0.114472635697528,1
164,109,28,0.121138471545537,1
164,110,28,0.156185518713017,1
164,111,28,0.218756185799002,1
164,112,28,0.236887707768652,1
164,113,28,0.22019553083942,1
164,114,28,0.193567035194647,1
164,115,28,0.139319680113932,1
165,96,28,0.116813570511254,1
165,97,28,0.146978977068934,1
165,98,28,0.172062524513547,1
165,99,28,0.171986010213464,1
165,100,28,0.138787636626959,1
165,101,28,0.116493816815462,1
165,105,28,0.130410292359292,1
165,106,28,0.142568399332619,1
165,107,28,0.142454611250827,1
165,108,28,0.139870460595124,1
165,109,28,0.154712162082843,1
165,110,28,0.190278451283674,1
165,111,28,0.220192468854193,1
165,112,28,0.188227027173187,1
165,113,28,0.146384598628852,1
165,114,28,0.137216484899372,1
165,115,28,0.124902946845161,1
165,116,28,0.117560965774637,1
166,95,28,0.124564279502157,1
166,96,28,0.153273511877535,1
166,97,28,0.185074065654051,1
166,100,28,0.197394328298896,1
166,101,28,0.153791058042144,1
166,102,28,0.127624686629366,1
166,106,28,0.119078167677891,1
166,107,28,0.145263782490136,1
166,108,28,0.165613371227834,1
166,109,28,0.179688693143763,1
166,110,28,0.175282625947225,1
166,111,28,0.157838260570044,1
166,112,28,0.136076024947737,1
166,113,28,0.118769437128917,1
167,94,28,0.114525914240483,1
167,95,28,0.200240902865443,1
167,100,28,0.203912388029089,1
167,101,28,0.196547995582074,1
167,102,28,0.162293908373531,1
167,103,28,0.11718733291571,1
167,107,28,0.115991898552378,1
167,108,28,0.13030918796246,1
167,109,28,0.136825269179121,1
167,110,28,0.131314155067788,1
167,111,28,0.149071785087454,1
167,112,28,0.188996386292142,1
167,113,28,0.17218978533034,1
167,114,28,0.114710481288491,1
168,94,28,0.130693726199542,1
168,99,28,0.167526158068722,1
168,100,28,0.16292531328113,1
168,101,28,0.179856171958829,1
168,102,28,0.162638464149665,1
168,103,28,0.1167756843325,1
168,110,28,0.118971504600185,1
168,111,28,0.19767302783891,1
168,112,28,0.264973885034608,1
168,113,28,0.212416274724706,1
168,114,28,0.120971228267795,1
169,94,28,0.178002245895503,1
169,99,28,0.169182480093092,1
169,100,28,0.15831190257724,1
169,101,28,0.162604393675578,1
169,102,28,0.158695298458295,1
169,103,28,0.129424215347443,1
169,110,28,0.130432821504445,1
169,111,28,0.172243346518085,1
169,112,28,0.195232166314978,1
169,113,28,0.147718764476713,1
170,93,28,0.204742445116741,1
157,105,29,0.172495595216482,1
157,106,29,0.189927959966946,1
157,107,29,0.190073698686898,1
157,108,29,0.15991779606029,1
157,109,29,0.125753931424156,1
158,94,29,0.299186906310507,2
158,95,29,0.265252643458954,2
158,96,29,0.23772127436245,2
158,97,29,0.240128536486946,2
158,98,29,0.209212236936605,1
158,99,29,0.161441192595196,1
158,100,29,0.151036496131676,1
158,101,29,0.19347327956236,1
158,113,29,0.139164425686043,1
159,93,29,0.25310270963081,2
159,94,29,0.363832928099217,2
159,95,29,0.351585740909508,2
159,96,29,0.338133945177651,2
159,97,29,0.330526136681933,2
159,98,29,0.257237520266809,2
159,99,29,0.203406665838203,1
159,100,29,0.207681574075217,1
159,114,29,0.141530315679371,1
160,94,29,0.30751458753316,2
160,95,29,0.274558864499051,2
160,96,29,0.256347683806027,2
160,97,29,0.257499838185858,2
160,98,29,0.225719375743179,1
160,99,29,0.220286236263345,1
160,100,29,0.229468541116667,1
160,113,29,0.209648452062831,1
160,114,29,0.140850178099193,1
161,96,29,0.131000478234985,1
161,97,29,0.134018029345878,1
161,98,29,0.136915998156779,1
161,99,29,0.152950331113661,1
161,100,29,0.165611380937437,1
161,101,29,0.200316298363232,1
161,112,29,0.180114650619477,1
161,113,29,0.170855325060823,1
161,114,29,0.146247786773524,1
162,100,29,0.119169226407804,1
162,101,29,0.144354584861225,1
162,102,29,0.187455312680981,1
162,109,29,0.136970183518436,1
162,110,29,0.117292382562738,1
162,111,29,0.118861520446194,1
162,112,29,0.14013439194485,1
162,113,29,0.176720133796507,1
162,114,29,0.174262631560551,1
162,115,29,0.12242528261417,1
163,102,29,0.121604399705333,1
163,103,29,0.144382696240984,1
163,104,29,0.166372661126138,1
163,105,29,0.163744500321226,1
163,106,29,0.142138779251498,1
163,107,29,0.122130142568859,1
163,111,29,0.124958109686717,1
163,112,29,0.163349881086626,1
163,113,29,0.1948503838646,1
163,114,29,0.180433273736109,1
163,115,29,0.121312498298243,1
163,117,29,0.114940707246984,1
163,118,29,0.171633422614542,1
164,105,29,0.121345449970035,1
164,106,29,0.118255647784644,1
164,110,29,0.115868535878317,1
164,111,29,0.155435096795006,1
164,112,29,0.197038690491613,1
164,113,29,0.199123937761994,1
164,114,29,0.173983378507822,1
164,115,29,0.120112906701122,1
165,97,29,0.11942122779201,1
165,98,29,0.11883767229202,1
165,99,29,0.116263390650242,1
165,110,29,0.123531589653656,1
165,111,29,0.146115037937055,1
165,112,29,0.161371449993212,1
165,113,29,0.14917910766967,1
165,114,29,0.138121843269884,1
166,95,29,0.117911574860027,1
166,96,29,0.136349954856916,1
166,97,29,0.140425480748168,1
166,98,29,0.144591617848416,1
166,99,29,0.14576060137013,1
166,100,29,0.128512709452744,1
166,111,29,0.117624313538243,1
166,112,29,0.122619494915644,1
166,113,29,0.117212971153555,1
167,95,29,0.164363150882667,1
167,96,29,0.198378061714359,1
167,97,29,0.174270121647491,1
167,98,29,0.152813801903123,1
167,99,29,0.143736216944574,1
167,100,29,0.132609221719669,1
167,101,29,0.120473761660158,1
167,111,29,0.124370137861881,1
167,112,29,0.172925462611794,1
167,113,29,0.17733735935713,1
167,114,29,0.118423244368373,1
168,94,29,0.127782967711884,1
168,95,29,0.221032654046828,1
168,98,29,0.154132975800236,1
168,99,29,0.125044281017133,1
168,100,29,0.11839725282454,1
168,101,29,0.118209400030846,1
168,111,29,0.161425105395887,1
168,112,29,0.253659990942177,1
168,113,29,0.24691749947169,1
168,114,29,0.14399322349694,1
169,92,29,0.122785548729893,1
169,93,29,0.118262972995457,1
169,94,29,0.165280615871692,1
169,95,29,0.233631286479432,1
169,97,29,0.205281590054069,1
169,98,29,0.151618815060709,1
169,99,29,0.12693563396143,1
169,100,29,0.119919094813101,1
169,101,29,0.119433935030703,1
169,107,29,0.114640656248443,1
169,110,29,0.118283346974085,1
169,111,29,0.163973407270698,1
169,112,29,0.223256668132337,1
169,113,29,0.194428454077146,1
170,92,29,0.143906439769479,1
170,93,29,0.192146957107428,1
170,97,29,0.189011437127221,1
170,98,29,0.159781938131128,1
170,99,29,0.151008408305649,1
170,100,29,0.138952559862047,1
170,101,29,0.126047776014179,1
170,102,29,0.121075265104326,1
170,103,29,0.113826121070519,1
157,110,30,0.146198312158371,1
157,111,30,0.120161827803561,1
158,98,30,0.155858675343736,1
158,99,30,0.14115084149478,1
158,100,30,0.154272614103466,1
158,113,30,0.185974878154186,1
158,114,30,0.160096003600518,1
159,94,30,0.276803558761711,2
159,95,30,0.269162633718073,2
159,96,30,0.223902723461562,2
159,97,30,0.204007380232332,2
159,98,30,0.182468810854012,1
159,99,30,0.192651666487815,1
159,114,30,0.163826973715636,1
160,96,30,0.192387205179108,1
160,97,30,0.170120048192821,1
160,98,30,0.172536425611801,1
160,99,30,0.20719436511809,1
160,114,30,0.142210147061026,1
161,95,30,0.15281620438384,1
161,96,30,0.118229149835562,1
161,98,30,0.121179407932652,1
161,99,30,0.144648464781847,1
161,100,30,0.160920596222226,1
161,113,30,0.173293583897312,1
161,114,30,0.130073450430558,1
162,101,30,0.11745298368791,1
162,102,30,0.140669414978987,1
162,105,30,0.174705512393079,1
162,108,30,0.137432920147477,1
162,109,30,0.126478856426716,1
162,110,30,0.114929884306892,1
162,113,30,0.120937911513149,1
162,114,30,0.122812258662568,1
162,118,30,0.120257385296385,1
163,112,30,0.115079638938239,1
163,113,30,0.124751178369684,1
163,114,30,0.120163264581244,1
163,118,30,0.13197964222634,1
163,119,30,0.187868186058282,1
164,112,30,0.149517398152954,1
164,113,30,0.154056190632228,1
164,114,30,0.133883561086935,1
165,112,30,0.12599605201757,1
165,113,30,0.128430353826996,1
165,114,30,0.117998711893476,1
167,92,30,0.119192238404474,1
167,95,30,0.127273641799923,1
167,96,30,0.13878596431195,1
167,97,30,0.117417452882407,1
167,112,30,0.130250656937154,1
167,113,30,0.150222373144072,1
168,94,30,0.115908247471342,1
168,95,30,0.160769322375132,1
168,96,30,0.178110769718078,1
168,97,30,0.140684960442448,1
168,111,30,0.114910381816368,1
168,112,30,0.200163623069053,1
168,113,30,0.234099864434137,1
168,114,30,0.15150010424882,1
169,94,30,0.141522719600634,1
169,95,30,0.176516688431886,1
169,96,30,0.177890165459318,1
169,97,30,0.13786564932129,1
169,111,30,0.139954983164263,1
169,112,30,0.216769263585016,1
169,113,30,0.214226237746288,1
169,114,30,0.129969684461951,1
170,92,30,0.130482672979318,1
170,93,30,0.15935281267839,1
170,94,30,0.188624366863893,1
170,95,30,0.190448203033928,1
170,96,30,0.162148252091642,1
170,97,30,0.12945702569684,1
170,107,30,0.129464633552443,1
171,92,30,0.173932066701532,1
157,113,31,0.127833243153943,1
158,99,31,0.130001540885181,1
158,100,31,0.168054044321906,1
158,114,31,0.222207726208398,1
159,98,31,0.134089903560655,1
159,99,31,0.1803661573753,1
160,95,31,0.190319505439452,1
160,96,31,0.1377354207342,1
160,98,31,0.126873499215048,1
160,99,31,0.177229624584595,1
160,114,31,0.141732830671557,1
161,94,31,0.150799474921352,1
161,95,31,0.136278481055592,1
161,99,31,0.127817391491958,1
161,100,31,0.157332915238879,1
161,113,31,0.184595336040631,1
161,114,31,0.119721208129354,1
162,103,31,0.115406505861252,1
162,104,31,0.127326461045094,1
162,105,31,0.133145469547897,1
162,106,31,0.12905075914151,1
162,107,31,0.121525730238725,1
162,108,31,0.12126639186684,1
162,109,31,0.121857578776165,1
162,119,31,0.129025050242467,1
163,119,31,0.155788838526821,1
163,120,31,0.165811728986231,1
166,92,31,0.113754588384863,1
167,113,31,0.113971647806879,1
168,91,31,0.115869937325402,1
168,95,31,0.118675339967509,1
168,112,31,0.141953328938521,1
168,113,31,0.184226496366271,1
168,114,31,0.138919879058179,1
169,94,31,0.116773423174178,1
169,95,31,0.124998504337985,1
169,96,31,0.116568387932613,1
169,112,31,0.182919146442882,1
169,113,31,0.198069649140774,1
169,114,31,0.133061041193688,1
170,93,31,0.126448566326698,1
170,94,31,0.135104680795577,1
170,95,31,0.129843224472064,1
171,91,31,0.11660667452482,1
171,92,31,0.152417392584852,1
171,96,31,0.131577474020469,1
157,111,32,0.128587527884086,1
157,113,32,0.136078710073244,1
157,114,32,0.170016305777947,1
158,99,32,0.116132090368323,1
158,100,32,0.167893902494519,1
158,113,32,0.244031766824832,1
158,114,32,0.254753732065364,1
158,115,32,0.173189982804833,1
159,99,32,0.168863586108536,1
159,114,32,0.187241032599402,1
160,99,32,0.162083679533945,1
160,114,32,0.135662397850995,1
161,99,32,0.116070544465254,1
161,100,32,0.157769813423348,1
161,105,32,0.16982978377014,1
161,106,32,0.166984810857404,1
161,107,32,0.167019870588256,1
161,108,32,0.167258776097182,1
161,109,32,0.164120276569812,1
161,110,32,0.159606109517884,1
161,113,32,0.171757279916985,1
162,119,32,0.114269060787379,1
162,120,32,0.126296585867629,1
163,119,32,0.118265787666493,1
163,120,32,0.141141926407022,1
167,91,32,0.122292887083689,1
168,113,32,0.122445797915193,1
169,112,32,0.139213123028023,1
169,113,32,0.158959288692352,1
169,114,32,0.115334714084538,1
171,92,32,0.132218995256184,1
171,93,32,0.142215258220983,1
171,94,32,0.145659379204636,1
171,95,32,0.128069510644827,1
172,91,32,0.19691287822937,1
156,107,33,0.14904579354362,1
156,110,33,0.119767502990617,1
157,103,33,0.170642670186788,1
157,105,33,0.16209883636082,1
157,111,33,0.117295644754692,1
157,113,33,0.130165757508294,1
157,114,33,0.1596239396934,1
158,100,33,0.148290990631362,1
158,111,33,0.198759302428889,1
158,112,33,0.192684853696933,1
158,113,33,0.221271347572161,1
158,114,33,0.242879235585281,1
158,115,33,0.157142506865206,1
159,99,33,0.156953134855765,1
159,113,33,0.256462249160992,1
159,114,33,0.192413726681923,1
160,99,33,0.16732709369835,1
160,109,33,0.16474611101967,1
160,110,33,0.188453614080007,1
160,113,33,0.244195276835969,1
160,114,33,0.140452744193557,1
161,100,33,0.157388007419237,1
161,104,33,0.145732902180689,1
161,105,33,0.141138381570278,1
161,106,33,0.124930174959952,1
161,107,33,0.114203063228864,1
161,109,33,0.117949166617125,1
161,110,33,0.126625973040021,1
161,111,33,0.149314447416716,1
161,112,33,0.176041138572356,1
161,113,33,0.146500377001043,1
162,120,33,0.126225983554407,1
166,91,33,0.129937439402135,1
170,112,33,0.120320485745799,1
171,92,33,0.117417723750331,1
171,93,33,0.123260509746111,1
171,94,33,0.124856334008509,1
172,90,33,0.136708560434497,1
172,91,33,0.204983635337721,1
172,96,33,0.117234899678529,1
173,90,33,0.196617655745994,1
156,107,34,0.121514565769511,1
156,109,34,0.167427291276479,1
156,110,34,0.116147612278052,1
157,103,34,0.12585361082017,1
157,104,34,0.139531439946132,1
157,105,34,0.125505545537891,1
157,106,34,0.148727570840441,1
157,110,34,0.159227483267664,1
157,114,34,0.122161787008496,1
158,100,34,0.11847144708197,1
158,110,34,0.169249749553162,1
158,111,34,0.137089012098987,1
158,112,34,0.144850508699383,1
158,113,34,0.16885973507327,1
158,114,34,0.186802921397709,1
158,115,34,0.128132881962165,1
159,99,34,0.1396257255374,1
159,109,34,0.194461488187002,1
159,110,34,0.162766667115758,1
159,111,34,0.183427247560752,1
159,112,34,0.20490100884405,1
159,113,34,0.208681524235519,1
159,114,34,0.188589589777831,1
159,115,34,0.123697266608184,1
159,118,34,0.136938173995944,1
159,119,34,0.138357274603263,1
160,99,34,0.175421439869818,1
160,106,34,0.184840518619273,1
160,107,34,0.153244493679073,1
160,108,34,0.128960147932515,1
160,109,34,0.118491597300139,1
160,110,34,0.136601803141861,1
160,111,34,0.175965813735764,1
160,112,34,0.209665834717429,1
160,113,34,0.1983191302756,1
160,114,34,0.155592647711816,1
160,118,34,0.121005086758289,1
160,119,34,0.144466653520543,1
160,120,34,0.130027002470033,1
161,100,34,0.151346616350869,1
161,103,34,0.131906967184657,1
161,104,34,0.128100684009814,1
161,105,34,0.119216204327311,1
161,112,34,0.126200121556103,1
161,113,34,0.115337634747371,1
161,119,34,0.12091480530155,1
161,120,34,0.15239010558573,1
161,121,34,0.142382866581578,1
162,120,34,0.127618915964899,1
162,121,34,0.117862889294913,1
172,90,34,0.143435200242999,1
172,95,34,0.154386496400189,1
172,118,34,0.126168700876924,1
173,96,34,0.114540552885243,1
156,108,35,0.120790382709525,1
156,109,35,0.125942950127609,1
157,106,35,0.125903638948038,1
157,107,35,0.192814363895181,1
157,109,35,0.19941009205835,1
157,110,35,0.125034506218138,1
158,102,35,0.129975113597297,1
158,103,35,0.15854742812555,1
158,104,35,0.174379469850704,1
158,105,35,0.170452202928784,1
158,106,35,0.201670402445669,1
158,110,35,0.126651199087547,1
158,113,35,0.115147968316273,1
158,114,35,0.126522171740816,1
159,99,35,0.124816398655025,1
159,100,35,0.198813311137552,1
159,106,35,0.218785792840777,1
159,107,35,0.245841871168809,1
159,109,35,0.154323160413449,1
159,112,35,0.129795469279385,1
159,113,35,0.152246604470367,1
159,114,35,0.17194443787557,1
159,115,35,0.145554294227008,1
159,118,35,0.155032363299554,1
159,119,35,0.169806029830896,1
159,120,35,0.119779067873284,1
160,99,35,0.179562197823277,1
160,100,35,0.267453292241806,1
160,103,35,0.252636463495625,1
160,104,35,0.257363391413383,1
160,105,35,0.218116207332767,1
160,106,35,0.151433470739528,1
160,107,35,0.125364058266658,1
160,112,35,0.13123853580954,1
160,113,35,0.152449708305866,1
160,114,35,0.168084817273441,1
160,115,35,0.136772932785467,1
160,118,35,0.137265924183927,1
160,119,35,0.189945872580525,1
160,120,35,0.192053660772926,1
160,121,35,0.147658137169213,1
161,99,35,0.117604057328278,1
161,100,35,0.147979845824804,1
161,101,35,0.148987026980989,1
161,102,35,0.13345395278268,1
161,103,35,0.123080959643129,1
161,104,35,0.117572671979698,1
161,119,35,0.137157070609097,1
161,120,35,0.200056689123423,1
161,121,35,0.187399631657309,1
161,122,35,0.124659059721808,1
162,120,35,0.128632303529602,1
162,121,35,0.13001678015012,1
172,93,35,0.152033031000763,1
172,94,35,0.149585880630249,1
172,95,35,0.115816658782447,1
172,118,35,0.147978573923248,1
157,107,36,0.146608594625095,1
157,108,36,0.164151909232583,1
157,109,36,0.129211230721152,1
158,103,36,0.119342193242547,1
158,104,36,0.126424623957594,1
158,105,36,0.134718399582289,1
158,106,36,0.169211451184089,1
158,107,36,0.235915386136593,1
158,109,36,0.156971600982059,1
159,100,36,0.146816362099632,1
159,101,36,0.153289022010398,1
159,102,36,0.17673167512544,1
159,103,36,0.219885799256814,1
159,104,36,0.223077918856261,1
159,105,36,0.192156555253429,1
159,106,36,0.168009162684594,1
159,107,36,0.186343764936011,1
159,108,36,0.180138263236326,1
159,109,36,0.115839517679856,1
159,114,36,0.146794669111984,1
159,115,36,0.154026477598657,1
159,118,36,0.139936858567091,1
159,119,36,0.168664321531437,1
159,120,36,0.138087596142803,1
160,99,36,0.166858315536918,1
160,100,36,0.218148923467234,1
160,101,36,0.196751676484019,1
160,102,36,0.192328532831406,1
160,103,36,0.213630610958383,1
160,104,36,0.202601151739834,1
160,105,36,0.162393823306871,1
160,106,36,0.11639463204783,1
160,113,36,0.116703397927403,1
160,114,36,0.160395936830397,1
160,115,36,0.148333140035702,1
160,118,36,0.131724154889722,1
160,119,36,0.204280462207141,1
160,120,36,0.236204366880852,1
160,121,36,0.179266386496589,1
161,99,36,0.115085704024362,1
161,100,36,0.137807754246762,1
161,101,36,0.121152191594728,1
161,119,36,0.13745264639846,1
161,120,36,0.219347643576252,1
161,121,36,0.216296304636062,1
161,122,36,0.12062623674761,1
162,120,36,0.120402299635699,1
162,121,36,0.138812262054306,1
172,93,36,0.118528682651988,1
172,117,36,0.135903529187644,1
172,118,36,0.140453309483138,1
173,94,36,0.153908814927866,1
173,95,36,0.129647163202588,1
173,118,36,0.117464136380257,1
158,105,37,0.115430978189338,1
158,106,37,0.140666859399009,1
158,107,37,0.157210011862602,1
158,108,37,0.147160081718262,1
159,102,37,0.125453962863678,1
159,103,37,0.152624170802624,1
159,104,37,0.144893623806756,1
159,105,37,0.131565496947483,1
159,106,37,0.125085523602771,1
159,107,37,0.126101525631784,1
159,108,37,0.116508137484833,1
159,114,37,0.114077121421093,1
159,115,37,0.135743717112512,1
159,119,37,0.135962743271193,1
159,120,37,0.131679814988258,1
160,99,37,0.149516585549182,1
160,100,37,0.164297117993554,1
160,101,37,0.133836194530842,1
160,102,37,0.137645563244645,1
160,103,37,0.155378626721295,1
160,104,37,0.135556947790514,1
160,114,37,0.129516133788592,1
160,115,37,0.133525897658655,1
160,119,37,0.180729850559104,1
160,120,37,0.226125253661922,1
160,121,37,0.17356562950789,1
161,100,37,0.120304857844274,1
161,119,37,0.126157265539787,1
161,120,37,0.199245969650168,1
161,121,37,0.202134057670278,1
162,121,37,0.133492957763729,1
173,94,37,0.11550570240575,1
174,95,37,0.135117211381277,1
160,99,38,0.125489387677384,1
160,100,38,0.116512659801476,1
160,119,38,0.139111147143088,1
160,120,38,0.174772251894168,1
160,121,38,0.139784513025167,1
161,120,38,0.158487790074815,1
161,121,38,0.16082693480487,1
162,121,38,0.11700031627952,1
169,125,38,0.140286019097932,1
170,125,38,0.207402273915023,1
171,125,38,0.151489351969926,1
160,120,39,0.1163791454687,1
161,120,39,0.114903539457071,1
169,125,39,0.12456889603373,1
169,126,39,0.132772025118831,1
170,125,39,0.206392808046784,1
170,126,39,0.245794363290321,1
171,125,39,0.156818030646044,1
171,126,39,0.191047103790653,1
175,121,39,0.116332497301449,1
162,111,40,0.142195508416267,1
162,112,40,0.119116183402175,1
170,125,40,0.165311223947099,1
170,126,40,0.208697281682573,1
170,127,40,0.136646461018714,1
171,125,40,0.135094953104047,1
171,126,40,0.180342379882324,1
162,110,41,0.121358734275175,1
162,111,41,0.155626847731432,1
162,112,41,0.121932785844094,1
163,110,41,0.127065992094048,1
163,111,41,0.136568769032005,1
170,126,41,0.149535310766534,1
170,127,41,0.113968020532071,1
171,126,41,0.14229704855715,1
