x,y,z,signal,mito.p
62,255,33,0.120948652015177,1
62,256,33,0.13694763081955,1
63,255,33,0.118061011515985,1
63,256,33,0.142668549803284,1
64,256,33,0.1364235720479,1
65,256,33,0.189083735309184,1
65,257,33,0.181494593146486,1
66,257,33,0.254832260209577,1
66,258,33,0.181579186376823,1
67,260,33,0.245504016429576,1
60,255,34,0.16295716970436,1
60,256,34,0.120684650004254,1
61,254,34,0.167055519162422,1
61,255,34,0.172490413395328,1
61,256,34,0.142354849416748,1
62,254,34,0.140105244200859,1
62,255,34,0.16207642498433,1
62,256,34,0.169970964842851,1
62,257,34,0.128844946626771,1
63,254,34,0.115454025516606,1
63,255,34,0.156402107060382,1
63,256,34,0.183556769535866,1
63,257,34,0.133700996106191,1
64,255,34,0.147696129339763,1
64,256,34,0.167573395079286,1
64,257,34,0.12934036405968,1
65,254,34,0.149797758231111,1
65,255,34,0.204973719216332,1
65,256,34,0.220319046612742,1
65,257,34,0.177518699543783,1
65,258,34,0.122909935991319,1
65,262,34,0.122609990984573,1
66,255,34,0.313645859644815,2
66,256,34,0.316617987382548,2
66,257,34,0.247874652500007,1
66,258,34,0.154293482710477,1
66,259,34,0.121550602980263,1
66,260,34,0.131898040320033,1
66,261,34,0.126789695034751,1
66,262,34,0.11884286589004,1
67,256,34,0.228674238594977,1
67,257,34,0.185754497655885,1
67,258,34,0.139074897948743,1
67,259,34,0.142295517564537,1
67,260,34,0.180425253690187,1
67,261,34,0.177392427983756,1
67,262,34,0.158244939315692,1
68,260,34,0.198917748387535,1
68,261,34,0.247018568537923,1
59,255,35,0.171291022004933,1
60,254,35,0.191018992410893,1
60,255,35,0.192532885014729,1
60,256,35,0.128024581900049,1
61,253,35,0.156342268802921,1
61,254,35,0.213013314736562,1
61,255,35,0.20621342281993,1
61,256,35,0.152484662044922,1
62,253,35,0.139021360314731,1
62,254,35,0.189371585474281,1
62,255,35,0.222593489239572,1
62,256,35,0.198652156499667,1
62,257,35,0.128149416682393,1
63,254,35,0.144191251503081,1
63,255,35,0.197512250060745,1
63,256,35,0.203289980647311,1
63,257,35,0.131596658535604,1
64,254,35,0.125445754387895,1
64,255,35,0.175931366401957,1
64,256,35,0.197460596725334,1
64,257,35,0.142424238712745,1
65,254,35,0.171976741819718,1
65,255,35,0.258137414171376,2
65,256,35,0.268581845781654,2
65,257,35,0.190828030524507,1
65,258,35,0.114458173705762,1
66,254,35,0.256748615440941,2
66,255,35,0.376486511389784,2
66,256,35,0.343506551564915,2
66,257,35,0.230139822493419,2
66,258,35,0.135304475331658,1
67,255,35,0.279339377158287,2
67,256,35,0.232852859173458,2
67,257,35,0.165162882539703,1
67,258,35,0.118002327391418,1
67,260,35,0.130098617593753,1
67,261,35,0.128402077571109,1
67,262,35,0.120362164075489,1
68,256,35,0.133389827745901,1
68,257,35,0.114647015756222,1
68,260,35,0.144463520874119,1
68,261,35,0.174039518829278,1
68,262,35,0.190045375323546,1
69,260,35,0.154005679652844,1
69,261,35,0.208883214847067,1
58,255,36,0.15737166112887,1
59,254,36,0.167832085723527,1
59,255,36,0.179843653149996,1
59,256,36,0.11602236530539,1
59,268,36,0.175124203542312,1
60,253,36,0.145651806679631,1
60,254,36,0.199973214695381,1
60,255,36,0.196610118551589,1
60,256,36,0.128924228490425,1
60,268,36,0.181440737537084,1
61,252,36,0.114619587434706,1
61,253,36,0.176338904858843,1
61,254,36,0.246030418797612,1
61,255,36,0.238060141912181,1
61,256,36,0.159562570443326,1
62,253,36,0.160247100794618,1
62,254,36,0.24837651187876,1
62,255,36,0.293341081883232,1
62,256,36,0.213220257830462,1
62,257,36,0.119311620497739,1
63,253,36,0.123679695523726,1
63,254,36,0.172105627844054,1
63,255,36,0.226169157819335,1
63,256,36,0.197982264793134,1
63,257,36,0.121202584805449,1
64,254,36,0.137123777408183,1
64,255,36,0.192907613122218,1
64,256,36,0.212984155215706,1
64,257,36,0.147974404912593,1
65,254,36,0.189441810927782,1
65,255,36,0.301037240429624,2
65,256,36,0.30996090174617,2
65,257,36,0.200577815455375,1
66,253,36,0.121161424657875,1
66,254,36,0.263658974363081,2
66,255,36,0.404915183480279,2
66,256,36,0.347270697112284,2
66,257,36,0.204875405936803,2
66,258,36,0.11550790467974,1
67,254,36,0.20571177542477,1
67,255,36,0.284319672576738,2
67,256,36,0.226854218129609,2
67,257,36,0.143598533601142,1
68,255,36,0.14189087621675,1
68,256,36,0.141077883808307,1
68,257,36,0.114124111117465,1
68,261,36,0.118693229027356,1
68,262,36,0.120423521548697,1
69,260,36,0.122071529105489,1
69,261,36,0.157317534651545,1
69,262,36,0.153712259030006,1
70,260,36,0.163906915083801,1
70,261,36,0.247167121928911,1
55,263,37,0.160645783048077,1
55,264,37,0.165422880416098,1
58,254,37,0.168975760759651,1
58,255,37,0.137260801247104,1
58,268,37,0.120666054332431,1
58,269,37,0.185235797358383,1
59,253,37,0.138525024286254,1
59,254,37,0.156278014220613,1
59,255,37,0.16318095371701,1
59,268,37,0.151861712927296,1
59,269,37,0.248929671286935,1
60,252,37,0.125239706335832,1
60,253,37,0.147171611270329,1
60,254,37,0.18524965872997,1
60,255,37,0.182431843270826,1
60,256,37,0.130466326688951,1
60,268,37,0.158674524066215,1
60,269,37,0.273970091847309,1
61,252,37,0.119509624950149,1
61,253,37,0.18195539836946,1
61,254,37,0.25963088568912,1
61,255,37,0.260052026426534,1
61,256,37,0.164679324411117,1
61,268,37,0.116842094081333,1
61,269,37,0.1821072846136,1
62,253,37,0.17585738412812,1
62,254,37,0.298635772523327,1
62,255,37,0.339149323032752,1
62,256,37,0.207781960083207,1
63,253,37,0.135962531287601,1
63,254,37,0.197621633594557,1
63,255,37,0.238627080253879,1
63,256,37,0.180972430450303,1
64,253,37,0.123966285564134,1
64,254,37,0.154451375156409,1
64,255,37,0.206849090953115,2
64,256,37,0.21759110042002,2
64,257,37,0.147916486284332,1
65,253,37,0.122551624835395,1
65,254,37,0.201697395023134,2
65,255,37,0.3190563639877,2
65,256,37,0.32118159371903,2
65,257,37,0.199057469128829,2
66,253,37,0.116593437327145,1
66,254,37,0.245523989994751,2
66,255,37,0.387725952133728,2
66,256,37,0.32583640010782,2
66,257,37,0.180089801431671,2
67,254,37,0.17671801396058,1
67,255,37,0.263159753002371,2
67,256,37,0.214994089426362,2
67,257,37,0.128089354664473,1
68,255,37,0.135227749047982,1
68,256,37,0.144010135076887,1
69,261,37,0.120642465269315,1
70,260,37,0.127118811339219,1
70,261,37,0.203538001450721,1
70,262,37,0.184258694318623,1
71,261,37,0.319781748288044,1
54,263,38,0.243523147524847,1
54,264,38,0.225854338630505,1
55,261,38,0.114616643218141,1
55,262,38,0.144570490150347,1
55,263,38,0.184952917030847,1
55,264,38,0.171484103727246,1
55,265,38,0.116153147405194,1
57,269,38,0.12418208486146,1
58,254,38,0.141097621836157,1
58,255,38,0.113893496522386,1
58,269,38,0.185670728806187,1
58,270,38,0.21489761333797,1
59,253,38,0.130312344162617,1
59,254,38,0.129038051902817,1
59,255,38,0.128857359443808,1
59,268,38,0.129563005716302,1
59,269,38,0.253231925407402,1
59,270,38,0.26613400057603,1
60,252,38,0.114131730749935,1
60,253,38,0.136743985248203,1
60,254,38,0.161613547032894,1
60,255,38,0.161402694019396,1
60,256,38,0.130056432858814,1
60,268,38,0.133372951496552,1
60,269,38,0.267093014349217,1
60,270,38,0.277492199239327,1
61,252,38,0.115495303432843,1
61,253,38,0.174321351015717,1
61,254,38,0.258005089302093,1
61,255,38,0.258034107500554,1
61,256,38,0.162176987645314,1
61,269,38,0.173232815267416,1
61,270,38,0.192557793086866,1
62,252,38,0.11768772018618,1
62,253,38,0.185809012769797,1
62,254,38,0.316822386673336,1
62,255,38,0.330001383075173,1
62,256,38,0.185577691562742,1
63,252,38,0.120581390440897,1
63,253,38,0.155078057540638,1
63,254,38,0.217315663071959,1
63,255,38,0.233409881393767,1
63,256,38,0.165545406932655,1
64,252,38,0.11561348428575,1
64,253,38,0.142201443956861,1
64,254,38,0.17986029386202,1
64,255,38,0.222624391736635,2
64,256,38,0.216772937967288,1
64,257,38,0.144569524447314,1
65,253,38,0.131601251513445,1
65,254,38,0.215962713122416,2
65,255,38,0.324356519093739,2
65,256,38,0.307666132248178,2
65,257,38,0.188602838752372,1
66,253,38,0.113820880365034,1
66,254,38,0.226863498300221,2
66,255,38,0.362808741148154,2
66,256,38,0.305186913470841,2
66,257,38,0.167385035880343,1
67,254,38,0.154386531730788,1
67,255,38,0.247432360510792,2
67,256,38,0.219235810454258,1
67,257,38,0.131050494585986,1
68,255,38,0.130841408102427,1
68,256,38,0.146877118952662,1
70,261,38,0.15645386638759,1
70,262,38,0.16546574820928,1
54,261,39,0.117579738099453,1
54,262,39,0.165717419841231,1
54,263,39,0.22409711241603,1
54,264,39,0.196451283956356,1
55,261,39,0.116781419666368,1
55,262,39,0.148880976300329,1
55,263,39,0.176384363562602,1
55,264,39,0.150874835088542,1
57,269,39,0.117764740891513,1
57,270,39,0.1475478114861,1
58,253,39,0.149994007930448,1
58,269,39,0.163085137133128,1
58,270,39,0.220529028138137,1
58,271,39,0.210444615329391,1
59,253,39,0.115360446537314,1
59,269,39,0.220374774743879,1
59,270,39,0.281085721548339,1
59,271,39,0.219553338322328,1
60,253,39,0.124606181592306,1
60,254,39,0.144260228608759,1
60,255,39,0.142504380287636,1
60,256,39,0.12056513836546,1
60,269,39,0.213463073258986,1
60,270,39,0.256836965491615,1
60,271,39,0.20629640261959,1
61,253,39,0.156833328795314,1
61,254,39,0.231912570617623,1
61,255,39,0.225397184236071,1
61,256,39,0.144107729967574,1
61,269,39,0.141008600504106,1
61,270,39,0.167337492671256,1
61,271,39,0.169060966387034,1
62,252,39,0.1214792822782,1
62,253,39,0.180647341834095,1
62,254,39,0.277987016052057,1
62,255,39,0.264716607614319,1
62,256,39,0.150296508517171,1
63,252,39,0.137788970145079,1
63,253,39,0.179412984927778,1
63,254,39,0.224664262741321,1
63,255,39,0.214719782657462,1
63,256,39,0.149494174172692,1
64,252,39,0.12578961532892,1
64,253,39,0.169624842743505,1
64,254,39,0.215722582819399,1
64,255,39,0.238403555332287,2
64,256,39,0.204766517031374,1
64,257,39,0.134553747215124,1
65,253,39,0.141879287780352,1
65,254,39,0.230643895923028,2
65,255,39,0.318254359395476,2
65,256,39,0.275018138729412,2
65,257,39,0.169080362885762,1
66,253,39,0.116062300658873,1
66,254,39,0.212259006452686,2
66,255,39,0.342048834613133,2
66,256,39,0.297112340657822,2
66,257,39,0.167785885077194,1
67,254,39,0.141643903554437,1
67,255,39,0.243729407560503,2
67,256,39,0.250405642381418,1
67,257,39,0.158594323606992,1
68,255,39,0.130794877703839,1
68,256,39,0.160889316865443,1
68,257,39,0.127648193254418,1
70,261,39,0.118938976895578,1
70,262,39,0.139720364434655,1
71,261,39,0.1802237161779,1
71,262,39,0.258500518511868,1
53,262,40,0.187518719328918,1
53,264,40,0.197469547143691,1
53,265,40,0.133676158695251,1
54,258,40,0.129156397631851,1
54,259,40,0.119090191858341,1
54,262,40,0.141826927832965,1
54,263,40,0.181907419416322,1
54,264,40,0.15451313304307,1
55,262,40,0.130839629795622,1
55,263,40,0.136886709090393,1
55,264,40,0.114910322932036,1
56,270,40,0.11467538622704,1
57,270,40,0.140370329683478,1
57,271,40,0.15918263696095,1
58,269,40,0.127965155832908,1
58,270,40,0.192714366523777,1
58,271,40,0.211090034707838,1
59,269,40,0.163530491107571,1
59,270,40,0.243491397093413,1
59,271,40,0.224887552125588,1
59,272,40,0.19322746103294,1
60,254,40,0.12946240772472,1
60,255,40,0.124079131496626,1
60,269,40,0.143807973390689,1
60,270,40,0.198014839605206,1
60,271,40,0.187383473796802,1
60,272,40,0.211395008436476,1
61,253,40,0.140559430824996,1
61,254,40,0.194287567426092,1
61,255,40,0.182062850497205,1
61,256,40,0.117939650909188,1
61,270,40,0.124039525895398,1
61,271,40,0.135921335809427,1
61,272,40,0.179040753515936,1
62,252,40,0.126983848451893,1
62,253,40,0.17912545273807,1
62,254,40,0.2254926004065,1
62,255,40,0.196702048769605,1
62,256,40,0.118882035747217,1
63,252,40,0.15573614882718,1
63,253,40,0.216599818033284,1
63,254,40,0.23742039898327,1
63,255,40,0.199831397671893,1
63,256,40,0.135966429430332,1
64,252,40,0.137517737138272,1
64,253,40,0.206282034842754,1
64,254,40,0.259034787826564,1
64,255,40,0.250810672365791,1
64,256,40,0.187655754944706,1
64,257,40,0.120647764859131,1
65,253,40,0.152604008807589,1
65,254,40,0.241242439605168,1
65,255,40,0.304382789042691,2
65,256,40,0.246101362639955,1
65,257,40,0.150644397146456,1
66,253,40,0.117922904205368,1
66,254,40,0.196348495467649,2
66,255,40,0.323943033319393,2
66,256,40,0.312566297868604,2
66,257,40,0.184960065588666,1
67,254,40,0.131480467973095,1
67,255,40,0.248130705126206,2
67,256,40,0.312677283056227,3
67,257,40,0.215567929011688,1
68,255,40,0.132618678543275,1
68,256,40,0.188003160722474,1
68,257,40,0.159892381582903,1
71,261,40,0.127152410738655,1
71,262,40,0.184420638006548,1
71,263,40,0.154263746123173,1
72,262,40,0.224576949054878,1
52,265,41,0.154909789675532,1
53,258,41,0.18772512068697,1
53,259,41,0.193856804988944,1
53,262,41,0.16062723448372,1
53,264,41,0.195491540017462,1
53,265,41,0.125995133422002,1
54,257,41,0.123076825963072,1
54,258,41,0.142705964907388,1
54,259,41,0.124749682707669,1
54,262,41,0.116306576418813,1
54,263,41,0.139031276436121,1
54,264,41,0.120685851244612,1
56,270,41,0.123353075914905,1
56,271,41,0.145013853834392,1
57,270,41,0.124764957303207,1
57,271,41,0.159598772530205,1
57,272,41,0.139613512927089,1
58,270,41,0.149093878488555,1
58,271,41,0.188007047088339,1
58,272,41,0.173976324164933,1
59,270,41,0.179214297417126,1
59,271,41,0.209309867157891,1
59,272,41,0.204862569152581,1
59,273,41,0.159803972647898,1
60,270,41,0.137405538933425,1
60,271,41,0.164103035237609,1
60,272,41,0.206711183849224,1
60,273,41,0.223389935150921,1
61,253,41,0.132304613073886,1
61,254,41,0.152258864188142,1
61,255,41,0.138002154978096,1
61,272,41,0.152246981330087,1
61,273,41,0.195807442677988,1
62,252,41,0.141657976909617,1
62,253,41,0.196090664534646,1
62,254,41,0.190365835631314,1
62,255,41,0.14840479049002,1
63,252,41,0.1668453727609,1
63,253,41,0.256603618663563,1
63,254,41,0.259528497613866,1
63,255,41,0.192882104429901,1
63,256,41,0.124503086905076,1
64,252,41,0.139945396795128,1
64,253,41,0.232346147725807,1
64,254,41,0.296074516095632,1
64,255,41,0.257531588617291,1
64,256,41,0.168475196836187,1
65,253,41,0.152532676328659,1
65,254,41,0.237804089285982,1
65,255,41,0.277536150504205,1
65,256,41,0.220093872929874,1
65,257,41,0.133098856711245,1
66,254,41,0.172699970953537,1
66,255,41,0.287542788888178,2
66,256,41,0.321922146623116,3
66,257,41,0.202036662986317,1
67,254,41,0.123082396420812,1
67,255,41,0.235347906059047,3
67,256,41,0.3535802003179,3
67,257,41,0.261905752283134,3
67,258,41,0.11784892193153,1
68,255,41,0.129681221899808,1
68,256,41,0.20452650449702,3
68,257,41,0.187971963803754,1
68,258,41,0.113864431216459,1
69,257,41,0.120383963054934,1
71,262,41,0.126511890536572,1
71,263,41,0.11530685001897,1
72,261,41,0.13102555118325,1
72,262,41,0.164302912211753,1
72,263,41,0.139368801423098,1
73,262,41,0.173008677948779,1
51,265,42,0.160084638924578,1
52,258,42,0.160550343323916,1
52,259,42,0.186843127619116,1
52,262,42,0.186239504339022,1
52,264,42,0.282989192888016,1
52,265,42,0.154516324573826,1
53,258,42,0.177165852853803,1
53,259,42,0.173905121231532,1
53,262,42,0.131969090154172,1
53,263,42,0.204019251313521,1
53,264,42,0.189615743465559,1
53,265,42,0.120891522436956,1
54,258,42,0.140406885076346,1
54,259,42,0.120500707130158,1
55,271,42,0.118219669458224,1
56,270,42,0.116653275584606,1
56,271,42,0.158238674022843,1
56,272,42,0.139120698181624,1
57,271,42,0.14956236222833,1
57,272,42,0.151453291205441,1
58,271,42,0.154181319836228,1
58,272,42,0.16683274796027,1
58,273,42,0.11760379823722,1
59,270,42,0.119991251672668,1
59,271,42,0.177050545556263,1
59,272,42,0.20298665567995,1
59,273,42,0.172011165599793,1
60,271,42,0.138296647295763,1
60,272,42,0.188877039529476,1
60,273,42,0.227095384796857,1
60,274,42,0.162120317364876,1
61,253,42,0.127064590646964,1
61,254,42,0.117719081981027,1
61,272,42,0.124154821416071,1
61,273,42,0.191992656605706,1
61,274,42,0.168671964717639,1
62,252,42,0.157187836023437,1
62,253,42,0.217251196506058,1
62,254,42,0.177820128435677,1
62,255,42,0.121329680746114,1
63,252,42,0.171220702336502,1
63,253,42,0.283574738678404,1
63,254,42,0.282465522752953,1
63,255,42,0.190084768941182,1
64,252,42,0.138015674820561,1
64,253,42,0.241102294896688,1
64,254,42,0.316480645568238,1
64,255,42,0.256146958897512,1
64,256,42,0.150105629068848,1
65,253,42,0.147580539397433,1
65,254,42,0.226041637911485,1
65,255,42,0.247397241895608,1
65,256,42,0.196286148737675,1
65,257,42,0.117191796348022,1
66,254,42,0.150106135474098,1
66,255,42,0.239236650851434,1
66,256,42,0.301215848383305,1
66,257,42,0.199476866890038,1
67,254,42,0.120848631090041,1
67,255,42,0.207121042348763,1
67,256,42,0.338535465655879,3
67,257,42,0.266024499273556,1
67,258,42,0.119941800611248,1
68,255,42,0.124793304220292,1
68,256,42,0.198868285549248,1
68,257,42,0.196252172478519,1
68,258,42,0.123606514076794,1
69,257,42,0.127005670985071,1
69,258,42,0.127025903641303,1
70,258,42,0.121790933490006,1
70,259,42,0.115315847544792,1
71,259,42,0.118379658186349,1
72,261,42,0.118461330753854,1
72,262,42,0.120233725572071,1
51,259,43,0.149032049940696,1
51,262,43,0.173232732829353,1
51,264,43,0.268365952269397,1
51,265,43,0.170967723472397,1
52,258,43,0.126265966015356,1
52,259,43,0.141185571473377,1
52,262,43,0.144400608854564,1
52,263,43,0.256198871323981,1
52,264,43,0.275418387306083,1
52,265,43,0.157916647391862,1
53,258,43,0.146686239504339,1
53,259,43,0.142120654654326,1
53,263,43,0.167579083305689,1
53,264,43,0.173563827647352,1
53,265,43,0.117059165280215,1
54,258,43,0.121298130521407,1
55,271,43,0.124397224654276,1
56,271,43,0.149784992108086,1
56,272,43,0.146542443967319,1
57,271,43,0.129521244948549,1
57,272,43,0.15149664185014,1
58,271,43,0.122475746486089,1
58,272,43,0.15109780649742,1
58,273,43,0.124488224499858,1
59,271,43,0.143181432328855,1
59,272,43,0.183401291347518,1
59,273,43,0.176038005925931,1
59,274,43,0.124122493918191,1
60,271,43,0.116746748572102,1
60,272,43,0.162047642323193,1
60,273,43,0.206077258692246,1
60,274,43,0.189359926376685,1
61,273,43,0.168477410887044,1
61,274,43,0.201940846402436,1
61,275,43,0.135469716542135,1
62,252,43,0.155928111747198,1
62,253,43,0.209993467136749,1
62,254,43,0.162376782181394,1
62,274,43,0.124771764331904,1
63,252,43,0.158843121683576,1
63,253,43,0.267269997095354,1
63,254,43,0.271417173440924,1
63,255,43,0.173873782990418,1
64,252,43,0.12698017406962,1
64,253,43,0.218583065864998,1
64,254,43,0.292480923125422,1
64,255,43,0.231176869782436,1
64,256,43,0.130931312699447,1
65,253,43,0.136883376237242,1
65,254,43,0.197566576744797,1
65,255,43,0.211568787874991,1
65,256,43,0.172364636463684,1
66,254,43,0.130588064155468,1
66,255,43,0.19204171903054,1
66,256,43,0.253703447578672,1
66,257,43,0.181143630755107,1
67,254,43,0.120055765346034,1
67,255,43,0.171728697462575,1
67,256,43,0.27671570333942,1
67,257,43,0.234784453669761,1
67,258,43,0.117529144682005,1
68,255,43,0.117219554421794,1
68,256,43,0.174618646227554,1
68,257,43,0.185357322841307,1
68,258,43,0.130663695190582,1
69,257,43,0.126881507484104,1
69,258,43,0.138817055238873,1
70,258,43,0.131397923917487,1
70,259,43,0.13443971181914,1
71,259,43,0.139855892611562,1
71,260,43,0.128660944868344,1
72,260,43,0.129870181718931,1
72,261,43,0.120947003253901,1
50,262,44,0.165876937494706,1
50,263,44,0.217918167549759,1
50,264,44,0.236418493863169,1
50,265,44,0.208069197851259,1
51,259,44,0.145739002597411,1
51,260,44,0.132703789955727,1
51,262,44,0.137169518756732,1
51,263,44,0.216798164014815,1
51,264,44,0.255025071063966,1
51,265,44,0.197384188417047,1
51,266,44,0.131754762965129,1
51,268,44,0.13347130010668,1
52,262,44,0.114719879227765,1
52,263,44,0.20130703901412,1
52,264,44,0.232313384483875,1
52,265,44,0.153581147177947,1
53,263,44,0.13467322352332,1
53,264,44,0.145483091293608,1
55,271,44,0.116322887378582,1
56,271,44,0.125198958378576,1
56,272,44,0.132240334937845,1
57,272,44,0.137216637998634,1
58,272,44,0.129153783167542,1
58,273,44,0.124547344368477,1
59,272,44,0.14748793789804,1
59,273,44,0.167361611693354,1
59,274,44,0.146770620751083,1
60,272,44,0.12784575018591,1
60,273,44,0.174055017185274,1
60,274,44,0.204016966601467,1
60,275,44,0.157111922343532,1
61,273,44,0.135590629628014,1
61,274,44,0.213499722866783,1
61,275,44,0.205658638204211,1
62,252,44,0.138110360825281,1
62,253,44,0.176456037570653,1
62,254,44,0.139436141544365,1
62,274,44,0.128065742047624,1
62,275,44,0.15022385702922,1
63,252,44,0.139582280677771,1
63,253,44,0.223150864765868,1
63,254,44,0.23174048704785,1
63,255,44,0.148814060146246,1
63,275,44,0.117801967565757,1
64,252,44,0.117193374448101,1
64,253,44,0.186688473811406,1
64,254,44,0.242341221227114,1
64,255,44,0.191986320651658,1
65,253,44,0.133448076126417,1
65,254,44,0.171574738489974,1
65,255,44,0.176916159735384,1
65,256,44,0.14487261387735,1
66,254,44,0.128491687746472,1
66,255,44,0.158071842935421,1
66,256,44,0.193403395637981,1
66,257,44,0.147560565832258,1
67,255,44,0.142711994662913,1
67,256,44,0.201532589556708,1
67,257,44,0.186287895482479,1
68,256,44,0.140094845227953,1
68,257,44,0.158759918123457,1
68,258,44,0.126325286090701,1
69,257,44,0.116740200634462,1
69,258,44,0.132948006831336,1
70,258,44,0.124430035003673,1
70,259,44,0.139093552504897,1
71,259,44,0.146858252412915,1
71,260,44,0.140704545371037,1
71,275,44,0.127471116293351,1
72,259,44,0.12376196871141,1
72,260,44,0.160300968180886,1
72,261,44,0.128925123532261,1
72,275,44,0.140254928171008,1
73,261,44,0.125633136106939,1
49,262,45,0.156049531238326,1
49,263,45,0.186482779065329,1
49,264,45,0.194533221079385,1
49,265,45,0.192337424365432,1
50,259,45,0.193502074000363,1
50,260,45,0.156497570338276,1
50,261,45,0.127413656962874,1
50,262,45,0.14095142381842,1
50,263,45,0.185836653074907,1
50,264,45,0.224689465235115,1
50,265,45,0.23495321616325,1
50,266,45,0.174923325534535,1
50,267,45,0.125451901912083,1
50,268,45,0.129086973005256,1
51,259,45,0.142107900308168,1
51,260,45,0.127199635972353,1
51,262,45,0.117194611019058,1
51,263,45,0.177186980551871,1
51,264,45,0.229049284677854,1
51,265,45,0.213391093052412,1
51,266,45,0.143857648212568,1
51,267,45,0.114208563025407,1
51,268,45,0.147436001917839,1
51,269,45,0.166285653638218,1
52,263,45,0.151756745718332,1
52,264,45,0.179607397435978,1
52,265,45,0.142643335532624,1
53,264,45,0.117484969656669,1
58,273,45,0.114371884606684,1
59,273,45,0.14524721243931,1
59,274,45,0.166553176932153,1
59,275,45,0.121178795535607,1
60,273,45,0.138205247036728,1
60,274,45,0.198235844277418,1
60,275,45,0.197114886816307,1
60,276,45,0.125511410417288,1
61,274,45,0.193835100224429,1
61,275,45,0.25500601609436,1
61,276,45,0.189115521071216,1
62,253,45,0.135481776053184,1
62,254,45,0.117080716945469,1
62,274,45,0.122175565942019,1
62,275,45,0.176634139119085,1
62,276,45,0.161705936548694,1
63,252,45,0.117111772541794,1
63,253,45,0.170420440720484,1
63,254,45,0.179926291420534,1
63,255,45,0.125210853013498,1
63,275,45,0.117223311242131,1
63,276,45,0.153130010762171,1
64,253,45,0.155220969812688,1
64,254,45,0.185829292533495,1
64,255,45,0.151881886699198,1
65,253,45,0.139758191729079,1
65,254,45,0.161237123056664,1
65,255,45,0.148770674170949,1
65,256,45,0.120250566490821,1
66,254,45,0.153079064038736,1
66,255,45,0.14230060517076,1
66,256,45,0.141991686191926,1
66,257,45,0.114192075412645,1
67,255,45,0.121891743465182,1
67,256,45,0.138868096177239,1
67,257,45,0.138032551069909,1
67,276,45,0.123498861742322,1
68,257,45,0.12507564281198,1
69,258,45,0.115752769282993,1
70,259,45,0.127164317150443,1
71,259,45,0.133918149743137,1
71,260,45,0.136494080146191,1
71,275,45,0.118516894008863,1
71,276,45,0.128219818788888,1
72,260,45,0.173853868309574,1
72,261,45,0.127761686914554,1
72,275,45,0.151517910870603,1
72,276,45,0.14076056792383,1
73,261,45,0.129229944161637,1
73,275,45,0.158202825241951,1
76,270,45,0.126004908220997,1
49,259,46,0.154966660162696,1
49,262,46,0.130474900247587,1
49,263,46,0.155514625972852,1
49,264,46,0.171997421996868,1
49,265,46,0.178150010236452,1
49,266,46,0.155352376086404,1
50,258,46,0.134497536232471,1
50,259,46,0.165307761548419,1
50,260,46,0.13647208096002,1
50,262,46,0.11721119284675,1
50,263,46,0.15814097314036,1
50,264,46,0.213089251970199,1
50,265,46,0.233118474615059,1
50,266,46,0.167312749475246,1
50,268,46,0.119816895167707,1
50,269,46,0.141820215019198,1
51,259,46,0.125421918010588,1
51,260,46,0.114773687729702,1
51,263,46,0.142131807346673,1
51,264,46,0.194758382985387,1
51,265,46,0.197611976564225,1
51,266,46,0.135335519151116,1
51,268,46,0.136499956802455,1
51,269,46,0.165632214213848,1
52,264,46,0.132635778553083,1
52,265,46,0.121240977389453,1
59,274,46,0.164516956756007,1
59,275,46,0.13837151283457,1
60,274,46,0.174105528164658,1
60,275,46,0.199648644261289,1
60,276,46,0.145490051421567,1
61,274,46,0.156201959218314,1
61,275,46,0.244953801237965,1
61,276,46,0.223234504070038,1
62,275,46,0.176955718229147,1
62,276,46,0.188516337669701,1
63,253,46,0.122425706581356,1
63,254,46,0.127880268180914,1
63,276,46,0.148642482981722,1
64,253,46,0.123368739147029,1
64,254,46,0.134157149466993,1
64,276,46,0.131414105331727,1
65,254,46,0.147365446712083,1
65,255,46,0.121246795161385,1
66,255,46,0.132069122856175,1
71,259,46,0.117769039447697,1
71,260,46,0.124224422695661,1
71,276,46,0.1147573885468,1
72,260,46,0.168187370224822,1
72,261,46,0.117775375401744,1
72,275,46,0.139725499148344,1
72,276,46,0.144380764834918,1
73,261,46,0.128505843539715,1
73,262,46,0.11777926176761,1
73,275,46,0.156294490056509,1
73,276,46,0.149357680292752,1
74,275,46,0.149505939262084,1
76,270,46,0.120412262864554,1
76,271,46,0.131382201801031,1
48,264,47,0.138372125231616,1
48,265,47,0.133007621328338,1
48,266,47,0.137951832428572,1
49,259,47,0.127698268489751,1
49,262,47,0.114680073419811,1
49,263,47,0.141301020093312,1
49,264,47,0.175276089786452,1
49,265,47,0.177970495464069,1
49,266,47,0.14738151035766,1
49,267,47,0.128944696683983,1
49,268,47,0.137660896724514,1
49,269,47,0.150645080204699,1
50,258,47,0.119842462744355,1
50,259,47,0.128275982664076,1
50,263,47,0.144671335456121,1
50,264,47,0.211018242931124,1
50,265,47,0.215985183383237,1
50,266,47,0.150252262830637,1
50,269,47,0.142507395165399,1
50,270,47,0.119341592622368,1
51,263,47,0.123580581417292,1
51,264,47,0.170592854042513,1
51,265,47,0.168772020973374,1
51,266,47,0.120422697168059,1
51,268,47,0.115049242846425,1
51,269,47,0.148972305898166,1
51,270,47,0.114156144193689,1
59,274,47,0.148797183896897,1
59,275,47,0.141798887114403,1
60,274,47,0.147061945091727,1
60,275,47,0.178246827853966,1
60,276,47,0.148942486872798,1
61,274,47,0.125329799362711,1
61,275,47,0.202748127030744,1
61,276,47,0.217584387606252,1
61,277,47,0.117122418828891,1
62,275,47,0.166195054206089,1
62,276,47,0.196378514699743,1
62,277,47,0.1295168639543,1
63,276,47,0.138178902186908,1
65,277,47,0.128021425699892,1
66,277,47,0.120560027205503,1
72,276,47,0.126499889909854,1
73,275,47,0.130140849436157,1
73,276,47,0.143772089279198,1
74,263,47,0.16735567615276,1
74,264,47,0.116743191958492,1
74,275,47,0.151141451563775,1
75,264,47,0.127138160730482,1
76,270,47,0.117852784743663,1
76,271,47,0.116362351657415,1
77,269,47,0.181354519099204,1
77,270,47,0.192200400526511,1
48,263,48,0.117919241599962,1
48,264,48,0.124756407298303,1
48,265,48,0.120653453085534,1
48,266,48,0.114204735543873,1
48,268,48,0.155890731973693,1
49,263,48,0.127051989400067,1
49,264,48,0.170612179880044,1
49,265,48,0.168037698031539,1
49,266,48,0.131213651291136,1
49,267,48,0.117960083772147,1
49,268,48,0.137406386867795,1
49,269,48,0.161941344328341,1
50,263,48,0.126990997009712,1
50,264,48,0.189622079419606,1
50,265,48,0.183857350493389,1
50,266,48,0.12676143055573,1
50,269,48,0.141220619427364,1
50,270,48,0.140121060532245,1
51,264,48,0.1392782608753,1
51,265,48,0.13469661237971,1
51,269,48,0.124939066493977,1
51,270,48,0.118318076952682,1
52,251,48,0.12014549329006,1
59,274,48,0.121660104282737,1
59,275,48,0.127030685049004,1
60,274,48,0.118771286096919,1
60,275,48,0.146571579934443,1
60,276,48,0.131694594955412,1
61,275,48,0.158705591439405,1
61,276,48,0.175522096745732,1
62,275,48,0.145907046702058,1
62,276,48,0.173090291631952,1
62,277,48,0.125276426604826,1
63,276,48,0.1195908971042,1
63,277,48,0.127108636126771,1
64,277,48,0.127584774829615,1
65,277,48,0.124012615755996,1
66,277,48,0.120492239563318,1
73,276,48,0.117655121820376,1
74,263,48,0.200756211425463,1
74,264,48,0.153735117927415,1
74,275,48,0.131830676645033,1
74,276,48,0.187978429303331,1
75,264,48,0.178943276393912,1
75,275,48,0.166772662388618,1
77,268,48,0.131758955529517,1
77,269,48,0.170213968701235,1
77,270,48,0.192658155541124,1
77,271,48,0.179200871789591,1
78,269,48,0.219843638075607,1
78,270,48,0.25465442952907,1
49,256,49,0.116863139341338,1
49,257,49,0.124112424697539,1
49,263,49,0.115509694763412,1
49,264,49,0.154530798342458,1
49,265,49,0.151584320619437,1
49,266,49,0.116168893075382,1
49,268,49,0.152016920247721,1
49,269,49,0.196021016147591,1
49,270,49,0.183069242603351,1
50,256,49,0.12107109609367,1
50,257,49,0.127987060804149,1
50,263,49,0.114591452501213,1
50,264,49,0.161852911839604,1
50,265,49,0.155647421916786,1
50,268,49,0.114925432651447,1
50,269,49,0.150911472919473,1
50,270,49,0.160597085706097,1
50,271,49,0.15347250558671,1
51,269,49,0.115588894189002,1
51,270,49,0.120626507615534,1
51,271,49,0.114592677295304,1
52,251,49,0.12229650258163,1
61,275,49,0.115424618681558,1
61,276,49,0.121312780943033,1
62,275,49,0.113815851643141,1
62,276,49,0.129503944732015,1
65,277,49,0.114123675373414,1
74,263,49,0.191104727997257,1
74,264,49,0.168158458018157,1
74,276,49,0.164118568924204,1
75,264,49,0.216532807664271,1
75,265,49,0.12370335524804,1
75,275,49,0.156326593793931,1
75,276,49,0.284441680911179,1
76,275,49,0.167620584982385,1
77,268,49,0.132506998520543,1
77,269,49,0.167079979713641,1
77,270,49,0.186904002240808,1
77,271,49,0.181888399777314,1
77,272,49,0.15168094980709,1
78,269,49,0.19584058277964,1
78,270,49,0.237208533159274,1
78,271,49,0.264384358663426,1
48,268,50,0.1259441749217,1
48,269,50,0.155763647809894,1
49,255,50,0.122638714761379,1
49,256,50,0.13282642246408,1
49,257,50,0.131812540270994,1
49,264,50,0.129146870147048,1
49,265,50,0.126575085200917,1
49,268,50,0.145200093197409,1
49,269,50,0.200544793122385,1
49,270,50,0.188420638854482,1
49,271,50,0.152124395929199,1
50,255,50,0.114182807018899,1
50,256,50,0.133354332270997,1
50,257,50,0.135083623758707,1
50,264,50,0.133291761780564,1
50,265,50,0.126932124455285,1
50,269,50,0.141331439738859,1
50,270,50,0.160633122916849,1
50,271,50,0.17281605552425,1
50,272,50,0.133757101097048,1
51,271,50,0.121949991845698,1
53,250,50,0.113854538648802,1
54,249,50,0.122947080227499,1
55,248,50,0.126122829982846,1
55,249,50,0.12333310234973,1
56,248,50,0.133370631453899,1
56,249,50,0.11644210459572,1
65,278,50,0.120223232384234,1
74,263,50,0.156144676540831,1
74,264,50,0.156899326353828,1
74,276,50,0.12254820954418,1
75,264,50,0.214648438401666,1
75,265,50,0.126602501745567,1
75,275,50,0.12671792681177,1
75,276,50,0.233679029895245,1
76,275,50,0.160130439157459,1
77,267,50,0.116532586259186,1
77,268,50,0.139272431326502,1
77,269,50,0.172442034028737,1
77,270,50,0.180616686651224,1
77,271,50,0.174946690837193,1
77,272,50,0.155849336288793,1
77,273,50,0.142039759359994,1
78,269,50,0.195705089933333,1
78,270,50,0.23003093358799,1
78,271,50,0.250375022529145,1
78,272,50,0.253314740330934,1
48,269,51,0.146400073431116,1
48,270,51,0.127711541018024,1
49,254,51,0.122372322046605,1
49,255,51,0.133835334819605,1
49,256,51,0.137577422296472,1
49,257,51,0.127937009122549,1
49,268,51,0.133368276080648,1
49,269,51,0.186022126941617,1
49,270,51,0.178982764226478,1
49,271,51,0.152203242048802,1
50,255,51,0.123093478451962,1
50,256,51,0.134070401070131,1
50,257,51,0.127002785652837,1
50,263,51,0.116202256937493,1
50,269,51,0.137502686303194,1
50,270,51,0.160368166979759,1
50,271,51,0.176366003428104,1
50,272,51,0.142942456158731,1
51,255,51,0.120245172686074,1
51,256,51,0.117412212176922,1
51,271,51,0.121770100213595,1
53,250,51,0.124885434645034,1
54,249,51,0.136516856605536,1
54,250,51,0.132591721296409,1
55,248,51,0.136757328437674,1
55,249,51,0.132159616296507,1
56,247,51,0.121061344848408,1
56,248,51,0.161879892640203,1
56,249,51,0.135086179338685,1
57,248,51,0.132209055581062,1
57,249,51,0.122648077370054,1
64,278,51,0.139484155828103,1
65,278,51,0.126168571331395,1
74,264,51,0.121037202272577,1
75,263,51,0.144130106013466,1
75,264,51,0.166587282736838,1
75,265,51,0.113829289047543,1
75,276,51,0.164450676552702,1
75,277,51,0.157191592843773,1
76,264,51,0.126620473243478,1
76,275,51,0.138247796854522,1
76,276,51,0.260306712936247,1
77,268,51,0.132742111878534,1
77,269,51,0.165493270745727,1
77,270,51,0.163050501369461,1
77,271,51,0.15298530840645,1
77,272,51,0.148195633345264,1
77,273,51,0.147038791772662,1
78,270,51,0.21473370291338,1
78,271,51,0.217557771888507,1
78,272,51,0.243135782839862,1
48,269,52,0.124732488482931,1
48,270,52,0.12513944987337,1
49,254,52,0.121696447692012,1
49,255,52,0.132460632998082,1
49,256,52,0.121500256877007,1
49,269,52,0.15475161458481,1
49,270,52,0.161750700417344,1
49,271,52,0.150127804908014,1
49,272,52,0.131838732021554,1
50,254,52,0.114356551126815,1
50,255,52,0.13472893987759,1
50,256,52,0.129281585720182,1
50,262,52,0.120246715455554,1
50,263,52,0.115348846324049,1
50,269,52,0.126654049089182,1
50,270,52,0.153160618837578,1
50,271,52,0.165313649981548,1
50,272,52,0.141967390516834,1
51,255,52,0.141293753766831,1
51,256,52,0.135477501050732,1
52,255,52,0.120098209172031,1
53,250,52,0.126291769129329,1
54,249,52,0.13812465794092,1
54,250,52,0.140708455290635,1
55,248,52,0.137963785947824,1
55,249,52,0.129774259143253,1
56,247,52,0.137303445279827,1
56,248,52,0.179332007195383,1
56,249,52,0.143648703051405,1
57,248,52,0.137133316669853,1
57,249,52,0.127582984745943,1
64,278,52,0.124799428190746,1
64,279,52,0.115223693566317,1
65,278,52,0.125658939220912,1
65,279,52,0.115526417913499,1
75,277,52,0.116209794131898,1
76,276,52,0.199418076773674,1
76,277,52,0.203468423724865,1
77,268,52,0.114928306206814,1
77,269,52,0.137360775064775,1
77,270,52,0.132307498406119,1
77,271,52,0.122618482105146,1
77,272,52,0.131299398654366,1
77,273,52,0.140001925753171,1
77,274,52,0.131282475297552,1
77,276,52,0.266155764224876,1
78,269,52,0.167645646153784,1
78,270,52,0.184451999801395,1
78,271,52,0.17748241501884,1
78,272,52,0.215812958491069,1
78,273,52,0.277179735423749,1
79,270,52,0.268218929871023,1
79,271,52,0.191015435797283,1
79,272,52,0.195796831721489,1
48,270,53,0.116232900343498,1
49,254,53,0.12916990569745,1
49,255,53,0.127064402217103,1
49,269,53,0.124461173038061,1
49,270,53,0.145597939293364,1
49,271,53,0.145702352989614,1
49,272,53,0.13146124812736,1
50,254,53,0.141555388627636,1
50,255,53,0.154171497929768,1
50,256,53,0.128000250894359,1
50,262,53,0.114392164370382,1
50,270,53,0.138987066080185,1
50,271,53,0.145406565216658,1
50,272,53,0.127395167282848,1
51,254,53,0.123822348704719,1
51,255,53,0.159917595853563,1
51,256,53,0.149587034763142,1
51,257,53,0.121005334072481,1
52,255,53,0.114673537259037,1
53,250,53,0.11456536674245,1
54,249,53,0.126336026592729,1
54,250,53,0.130708046868913,1
55,248,53,0.127559913864942,1
55,249,53,0.119699621133502,1
56,247,53,0.135766305141997,1
56,248,53,0.169701368820455,1
56,249,53,0.137190422694342,1
57,248,53,0.127372108178713,1
57,249,53,0.120986208441677,1
64,278,53,0.118020145790067,1
65,278,53,0.126813178106071,1
65,279,53,0.126421997716419,1
76,276,53,0.147548847850331,1
76,277,53,0.162372907592395,1
77,273,53,0.125552676556659,1
77,274,53,0.129348843403386,1
77,275,53,0.150879852033568,1
77,276,53,0.236736940326807,1
78,269,53,0.140567533308982,1
78,270,53,0.152675977237296,1
78,271,53,0.144837471708434,1
78,272,53,0.178161586895985,1
78,273,53,0.242186473204473,1
79,272,53,0.168698521551053,1
49,254,54,0.132608126471107,1
49,255,54,0.115274075000172,1
49,270,54,0.119602909507784,1
49,271,54,0.129199430301161,1
50,253,54,0.123048231731796,1
50,254,54,0.168576371894217,1
50,255,54,0.16573766427433,1
50,256,54,0.1224032480974,1
51,254,54,0.126813743395651,1
51,255,54,0.156260737557811,1
51,256,54,0.143872086650602,1
51,257,54,0.120913062325343,1
55,248,54,0.11556711876329,1
56,247,54,0.121682291898769,1
56,248,54,0.14149531483285,1
56,249,54,0.118200708703547,1
65,278,54,0.126216479623336,1
65,279,54,0.140578415133405,1
66,279,54,0.128876614620141,1
70,280,54,0.133457532950023,1
71,280,54,0.140719796412842,1
72,280,54,0.116908951351084,1
76,277,54,0.131496107651487,1
76,278,54,0.121050769222507,1
77,274,54,0.119393010420454,1
77,275,54,0.134936306938675,1
77,276,54,0.186734120945025,1
77,277,54,0.201815540545442,1
78,269,54,0.114186269417579,1
78,270,54,0.114603453127931,1
78,272,54,0.13695417875719,1
78,273,54,0.193165667815681,1
78,274,54,0.216079021453588,1
78,276,54,0.198271763719507,1
79,273,54,0.205969476812245,1
49,253,55,0.123614981643634,1
49,254,55,0.137023980243506,1
50,253,55,0.132180649779645,1
50,254,55,0.17972379998208,1
50,255,55,0.163189303515187,1
50,256,55,0.116110385603808,1
51,254,55,0.123470196849848,1
51,255,55,0.137943671060254,1
51,256,55,0.1260779601224,1
57,251,55,0.121534186028698,1
57,252,55,0.128173629919421,1
58,251,55,0.116317882210422,1
58,252,55,0.147472722186834,1
58,253,55,0.118650231688645,1
65,278,55,0.118114513819399,1
65,279,55,0.152469269680722,1
66,279,55,0.158210998387135,1
66,280,55,0.124560039830304,1
67,279,55,0.120452280656101,1
69,280,55,0.132821770601908,1
70,280,55,0.173623159499564,1
70,281,55,0.210723797720922,1
71,280,55,0.170462566571092,1
71,281,55,0.24502644094905,1
72,280,55,0.143974156750467,1
73,280,55,0.122495849596793,1
76,278,55,0.125667960300466,1
77,267,55,0.116747714275135,1
77,275,55,0.114275337857095,1
77,276,55,0.139503929186551,1
78,273,55,0.146165961106758,1
48,252,56,0.11540588168734,1
48,253,56,0.12299438789926,1
49,253,56,0.134577995782751,1
49,254,56,0.138508407127962,1
50,253,56,0.125283563385779,1
50,254,56,0.164091752999733,1
50,255,56,0.1446969619171,1
57,251,56,0.123266256856845,1
57,252,56,0.149893480600062,1
58,251,56,0.127615382905021,1
58,252,56,0.192915008994228,1
58,253,56,0.158420120201292,1
59,252,56,0.114564365708818,1
59,253,56,0.11458337357096,1
62,278,56,0.135605421372035,1
63,278,56,0.119152197059194,1
65,279,56,0.147040228550346,1
65,280,56,0.118198353330295,1
66,279,56,0.16953240612024,1
66,280,56,0.155196803683125,1
67,279,56,0.12683880456705,1
67,280,56,0.122084424774042,1
69,280,56,0.150704859577829,1
70,279,56,0.120082699039168,1
70,280,56,0.196682475617883,1
70,281,56,0.181926933683712,1
71,280,56,0.187868186058282,1
71,281,56,0.215123964707464,1
72,280,56,0.167728107771328,1
72,281,56,0.212136527043595,1
73,280,56,0.127861731393423,1
76,278,56,0.116540088122993,1
47,252,57,0.127607928148679,1
48,252,57,0.146504074937048,1
48,253,57,0.146624246080353,1
49,253,57,0.135964368478737,1
49,254,57,0.136020791444983,1
50,254,57,0.130483144053969,1
50,255,57,0.11707973946557,1
57,252,57,0.150462856753077,1
57,253,57,0.120967035703407,1
58,251,57,0.124331709947278,1
58,252,57,0.207915721730174,1
58,253,57,0.184060807634876,1
59,252,57,0.131156674812175,1
59,253,57,0.144981102369326,1
62,278,57,0.137850657370542,1
63,278,57,0.122084825187495,1
65,279,57,0.133485891643974,1
65,280,57,0.125014061578313,1
66,279,57,0.162467711365778,1
66,280,57,0.172130747899784,1
67,279,57,0.126429829332481,1
67,280,57,0.137890204087439,1
69,260,57,0.162991228401581,1
69,261,57,0.143623936301663,1
69,280,57,0.153527927519324,1
70,279,57,0.126438073138862,1
70,280,57,0.200380105424622,1
70,281,57,0.14698833967761,1
71,262,57,0.118731880702418,1
71,279,57,0.120054340345217,1
71,280,57,0.203648468456229,1
71,281,57,0.184531470094909,1
72,262,57,0.118865041729206,1
72,280,57,0.190829396640993,1
72,281,57,0.214918788143503,1
73,280,57,0.129842965381007,1
76,265,57,0.118959704180194,1
76,266,57,0.122042934874212,1
47,250,58,0.122482035332672,1
47,251,58,0.152188874271966,1
47,252,58,0.16632033650935,1
47,253,58,0.120348597125559,1
48,251,58,0.128481594972088,1
48,252,58,0.161958208800824,1
48,253,58,0.15167528513442,1
49,248,58,0.150315693032307,1
49,249,58,0.126505813673582,1
49,253,58,0.127281402754788,1
49,254,58,0.126435258467826,1
50,248,58,0.134041630185861,1
50,249,58,0.116292597278564,1
54,248,58,0.12701089991369,1
54,279,58,0.134746593400112,1
55,248,58,0.115343570287965,1
57,252,58,0.136386510249784,1
57,253,58,0.123165753080192,1
58,252,58,0.190726219515699,1
58,253,58,0.200323152499395,1
58,254,58,0.123932921702023,1
59,252,58,0.141907352052647,1
59,253,58,0.186557149975754,1
59,254,58,0.155131559844052,1
60,254,58,0.117515071326826,1
62,278,58,0.116852928798291,1
65,280,58,0.11643939591648,1
66,279,58,0.134806667194898,1
66,280,58,0.16117553004613,1
67,279,58,0.11493524278104,1
67,280,58,0.139338216901424,1
68,260,58,0.117670455300245,1
68,280,58,0.114278435172921,1
69,260,58,0.180930222161632,1
69,261,58,0.18493732445992,1
69,280,58,0.135805168800651,1
70,261,58,0.133955965260694,1
70,279,58,0.122196434549029,1
70,280,58,0.18668084240207,1
70,281,58,0.124035533537736,1
71,262,58,0.122480645662453,1
71,279,58,0.13258948369182,1
71,280,58,0.224239659605226,1
71,281,58,0.171650075103431,1
72,262,58,0.115094842872579,1
72,279,58,0.116678372086603,1
72,280,58,0.208803320586367,1
72,281,58,0.19923176674946,1
73,263,58,0.116387589481808,1
73,280,58,0.126721000573863,1
76,266,58,0.131003728650072,1
46,248,59,0.120020599623385,1
46,249,59,0.117760913409978,1
46,250,59,0.118764113985368,1
46,251,59,0.124999764462675,1
47,248,59,0.12256753538171,1
47,249,59,0.126992174696338,1
47,250,59,0.15057525516465,1
47,251,59,0.188428399809347,1
47,252,59,0.180563101909746,1
47,253,59,0.116223914594543,1
48,247,59,0.135795535324051,1
48,248,59,0.148851910994402,1
48,249,59,0.119100202194661,1
48,251,59,0.13669104823437,1
48,252,59,0.156022267792937,1
48,253,59,0.136434430318591,1
49,247,59,0.161573529241347,1
49,248,59,0.193836301464788,1
49,249,59,0.1321396191776,1
49,253,59,0.11417855557018,1
50,247,59,0.126019181782903,1
50,248,59,0.152041557451935,1
50,249,59,0.114204264469223,1
53,279,59,0.156017521715835,1
54,248,59,0.146953421269152,1
54,249,59,0.124542774944368,1
54,279,59,0.140601815766661,1
54,280,59,0.179469655208215,1
55,248,59,0.121498608115731,1
58,252,59,0.147280841704879,1
58,253,59,0.188559158355418,1
58,254,59,0.14235509673094,1
59,252,59,0.130353810508714,1
59,253,59,0.200426647600077,1
59,254,59,0.184790007639889,1
59,255,59,0.126960636248497,1
60,253,59,0.114165601017295,1
60,254,59,0.129686156406771,1
60,255,59,0.118565084945594,1
66,280,59,0.1285312933477,1
67,280,59,0.123738944937874,1
69,260,59,0.153710951797852,1
69,261,59,0.187166355490455,1
70,261,59,0.141364367856918,1
70,280,59,0.16403966392027,1
70,281,59,0.12036609754882,1
71,279,59,0.130739067134639,1
71,280,59,0.224513047778558,1
71,281,59,0.169462357319732,1
72,279,59,0.116507112897468,1
72,280,59,0.199719635211097,1
72,281,59,0.167208276894665,1
73,280,59,0.116687475604222,1
45,248,60,0.122301849278912,1
46,247,60,0.121290051591154,1
46,248,60,0.164436932949778,1
46,249,60,0.14750459038693,1
46,250,60,0.138608463383697,1
46,251,60,0.143131733953242,1
46,252,60,0.114125583225748,1
47,247,60,0.142792277560199,1
47,248,60,0.164711616578398,1
47,249,60,0.148908899250228,1
47,250,60,0.168689700678225,1
47,251,60,0.202329600757639,1
47,252,60,0.173510278236474,1
48,246,60,0.134226150126403,1
48,247,60,0.186025601117163,1
48,248,60,0.185503202883655,1
48,249,60,0.127584233093767,1
48,250,60,0.113991739140717,1
48,251,60,0.136226121108205,1
48,252,60,0.140707466033869,1
48,253,60,0.116273094788039,1
49,246,60,0.149536523783758,1
49,247,60,0.207992789542972,1
49,248,60,0.208439674510028,1
49,249,60,0.12471942793825,1
50,246,60,0.140500146080249,1
50,247,60,0.159900401628825,1
50,248,60,0.153874744453779,1
51,246,60,0.119009496770736,1
53,279,60,0.143908571382272,1
53,280,60,0.226642422966811,1
54,247,60,0.117547646138898,1
54,248,60,0.151630874571758,1
54,249,60,0.156369614686374,1
54,279,60,0.139744153704498,1
54,280,60,0.200968312786784,1
54,281,60,0.213387159579082,1
55,248,60,0.115227167741863,1
55,249,60,0.121652508204001,1
58,253,60,0.16507028104031,1
58,254,60,0.165586531749631,1
59,253,60,0.180961018666898,1
59,254,60,0.197591579031864,1
59,255,60,0.142133303008688,1
60,254,60,0.129571049315957,1
60,255,60,0.129103825700872,1
69,260,60,0.118904082040854,1
69,261,60,0.166053260736333,1
70,261,60,0.138588313165528,1
70,280,60,0.132719123435596,1
70,281,60,0.11601619422747,1
71,279,60,0.11480435468944,1
71,280,60,0.193525769055276,1
71,281,60,0.16056474643135,1
72,280,60,0.16544390212237,1
72,281,60,0.134158056285695,1
73,264,60,0.120292103498116,1
74,264,60,0.136178106824468,1
74,265,60,0.115330874826138,1
75,265,60,0.150130678463381,1
42,271,61,0.132310807705538,1
42,272,61,0.145777053652294,1
43,271,61,0.120726410772008,1
43,272,61,0.13395714294732,1
45,248,61,0.146533175573573,1
45,249,61,0.126830702083064,1
46,247,61,0.137439326762721,1
46,248,61,0.200076332936343,1
46,249,61,0.168957247525892,1
46,250,61,0.143299672066093,1
46,251,61,0.137583522713194,1
47,246,61,0.123701706486764,1
47,247,61,0.190090233407126,1
47,248,61,0.209151915827628,1
47,249,61,0.161695443360858,1
47,250,61,0.16245051714104,1
47,251,61,0.177884489009781,1
47,252,61,0.142749515758813,1
48,246,61,0.172278559348198,1
48,247,61,0.235637475646618,1
48,248,61,0.211208933949587,1
48,249,61,0.131678119119516,1
48,251,61,0.119854698908398,1
49,245,61,0.115331204578393,1
49,246,61,0.197237448663462,1
49,247,61,0.233216222605007,1
49,248,61,0.19540815980435,1
50,245,61,0.11847616960534,1
50,246,61,0.196089545732351,1
50,247,61,0.189076021461784,1
50,248,61,0.147970883629581,1
51,246,61,0.159791559830862,1
51,247,61,0.137543528475379,1
51,280,61,0.116527981504479,1
52,280,61,0.156798645924182,1
53,279,61,0.124167493324166,1
53,280,61,0.219909682741587,1
53,281,61,0.249927572272508,1
54,247,61,0.126689273696162,1
54,248,61,0.135387937982834,1
54,249,61,0.154839717321292,1
54,279,61,0.130362737373339,1
54,280,61,0.198748043744746,1
54,281,61,0.197452706224941,1
55,249,61,0.128313185784588,1
55,280,61,0.118003575739241,1
58,253,61,0.129713820265613,1
58,254,61,0.166916552140568,1
58,255,61,0.117134866976527,1
59,253,61,0.13271785153404,1
59,254,61,0.17276099867449,1
59,255,61,0.138353211584404,1
60,255,61,0.12459779646353,1
69,261,61,0.130909549050601,1
70,261,61,0.120740248589862,1
71,280,61,0.140871882863708,1
71,281,61,0.139317996022057,1
72,264,61,0.120070910396043,1
72,280,61,0.118151269418993,1
73,264,61,0.131332126565699,1
74,264,61,0.161876076935535,1
74,265,61,0.152900385423857,1
42,271,62,0.151328597745493,1
42,272,62,0.181674437671124,1
43,271,62,0.13242286458799,1
43,272,62,0.160331399603299,1
45,248,62,0.159009199051557,1
45,249,62,0.157268342681182,1
46,247,62,0.14879374505195,1
46,248,62,0.213330654174772,1
46,249,62,0.186882474129287,1
46,250,62,0.136531083059977,1
47,246,62,0.149711174710376,1
47,247,62,0.230998850672068,1
47,248,62,0.232211349714609,1
47,249,62,0.167124519821832,1
47,250,62,0.138240283213848,1
47,251,62,0.132765064990872,1
48,245,62,0.117290863346991,1
48,246,62,0.216424531155888,1
48,247,62,0.266402654449126,1
48,248,62,0.215020163408259,1
48,249,62,0.132261780611302,1
49,245,62,0.14711305669129,1
49,246,62,0.250623467299741,1
49,247,62,0.2422896385529,1
49,248,62,0.172510893365752,1
50,246,62,0.248175221680664,1
50,247,62,0.211830069429808,1
50,248,62,0.141651063889123,1
51,246,62,0.193704153248498,1
51,247,62,0.169000386186998,1
51,248,62,0.12445727489533,1
51,280,62,0.135589711032446,1
51,281,62,0.201590390416307,1
52,247,62,0.1430838609919,1
52,248,62,0.116885114973777,1
52,280,62,0.155627495459076,1
52,281,62,0.205679907224674,1
53,280,62,0.195152118955017,1
53,281,62,0.21487778109519,1
53,282,62,0.146228390274796,1
54,249,62,0.125125741601045,1
54,279,62,0.119080699704137,1
54,280,62,0.18668556492544,1
54,281,62,0.174738852701458,1
54,282,62,0.120082192633919,1
55,249,62,0.117368896862822,1
55,280,62,0.129774636002973,1
57,254,62,0.114517529111707,1
58,254,62,0.146670093420698,1
58,255,62,0.130082436179513,1
59,254,62,0.131821785111007,1
59,255,62,0.130554712070223,1
60,255,62,0.114054427399812,1
73,264,62,0.12943977258777,1
73,265,62,0.125108983120359,1
74,265,62,0.18658354193304,1
74,266,62,0.124642925415033,1
41,271,63,0.115210680129101,1
42,271,63,0.155298143617282,1
42,272,63,0.192853404206829,1
43,271,63,0.135174282075167,1
43,272,63,0.17030892557388,1
43,273,63,0.122314968707924,1
44,271,63,0.118707643911657,1
44,272,63,0.120435439737351,1
45,248,63,0.151895500756593,1
45,249,63,0.177839124520952,1
45,250,63,0.117698354696412,1
45,271,63,0.125094191376338,1
46,247,63,0.14871095368215,1
46,248,63,0.197065765507142,1
46,249,63,0.187568064398543,1
46,250,63,0.120474998231115,1
47,246,63,0.173952793986148,1
47,247,63,0.242594518066608,1
47,248,63,0.224290253022674,1
47,249,63,0.161185705258578,1
48,245,63,0.132497365043943,1
48,246,63,0.244683380834931,1
48,247,63,0.271059439351447,1
48,248,63,0.207940429595585,1
48,249,63,0.133894855101677,1
49,246,63,0.280009598617076,1
49,247,63,0.244848115640159,1
49,248,63,0.166587824472686,1
50,246,63,0.264805051879922,1
50,247,63,0.220055786544393,1
50,248,63,0.144847093408168,1
50,281,63,0.15624846606317,1
51,246,63,0.203694021374918,1
51,247,63,0.194526779133541,1
51,248,63,0.138508819318281,1
51,280,63,0.142958319597582,1
51,281,63,0.21403811408467,1
51,282,63,0.163720051546873,1
52,246,63,0.168355308337673,1
52,247,63,0.193596006285643,1
52,248,63,0.142671211375058,1
52,280,63,0.146472677811602,1
52,281,63,0.194650954411374,1
52,282,63,0.151890589803363,1
53,247,63,0.162973775085785,1
53,248,63,0.121341198521316,1
53,280,63,0.159266193827057,1
53,281,63,0.170499133740825,1
53,282,63,0.129200054475073,1
54,280,63,0.163304987672447,1
54,281,63,0.150439326574291,1
55,280,63,0.146209570842514,1
55,281,63,0.12412935983122,1
56,280,63,0.119244362814535,1
57,254,63,0.115327271105063,1
58,254,63,0.118423256145239,1
58,255,63,0.135807418182106,1
59,255,63,0.124046427139025,1
73,264,63,0.114007567248968,1
73,265,63,0.132798405299251,1
74,265,63,0.21065398445774,1
74,266,63,0.176148425823973,1
41,271,64,0.115543423708377,1
41,272,64,0.115841413755323,1
42,271,64,0.1486941127634,1
42,272,64,0.185338656508287,1
42,273,64,0.148654530715904,1
43,271,64,0.137118736909424,1
43,272,64,0.171708323483948,1
43,273,64,0.15167276488504,1
44,249,64,0.117045315685495,1
44,270,64,0.124663735137713,1
44,271,64,0.134414485771614,1
44,272,64,0.12789079669935,1
45,248,64,0.137549923313758,1
45,249,64,0.18636130068987,1
45,250,64,0.134751021501826,1
45,270,64,0.135497639492035,1
45,271,64,0.138434695722049,1
46,247,64,0.141227249803067,1
46,248,64,0.17210469747162,1
46,249,64,0.180816598955967,1
46,250,64,0.114718136251559,1
47,246,64,0.179160971766706,1
47,247,64,0.224779204956007,1
47,248,64,0.200118541225015,1
47,249,64,0.15614442922664,1
48,246,64,0.247935256253775,1
48,247,64,0.262500107169483,1
48,248,64,0.198695895780952,1
48,249,64,0.141486246645831,1
49,246,64,0.281394958502563,1
49,247,64,0.251535562037752,1
49,248,64,0.173101679861625,1
49,249,64,0.126245568482995,1
50,246,64,0.253378335408731,1
50,247,64,0.219756183066769,1
50,248,64,0.150558791105621,1
50,281,64,0.149632387475105,1
50,282,64,0.136094137768043,1
51,246,64,0.202645903831618,1
51,247,64,0.212698424886535,1
51,248,64,0.151372077935721,1
51,280,64,0.133338091972426,1
51,281,64,0.19280640273359,1
51,282,64,0.165876595965585,1
52,247,64,0.247022172258998,1
52,248,64,0.170515880444645,1
52,280,64,0.12598286192736,1
52,281,64,0.169643921266844,1
52,282,64,0.148536302755532,1
53,248,64,0.140339391855816,1
53,280,64,0.116701101438483,1
53,281,64,0.130417205379786,1
54,280,64,0.129401073805244,1
54,281,64,0.124782021982416,1
55,280,64,0.152739419215832,1
55,281,64,0.137804150525686,1
56,280,64,0.144066310728942,1
56,281,64,0.128706709770625,1
58,255,64,0.13282768258877,1
59,255,64,0.118519602688103,1
73,265,64,0.131535925236308,1
73,266,64,0.134782194866813,1
74,265,64,0.222117067891938,1
74,266,64,0.225883191952839,1
74,267,64,0.12569713159819,1
75,266,64,0.207834343584326,1
75,267,64,0.131685785859451,1
42,271,65,0.131029602425243,1
42,272,65,0.161530131489183,1
42,273,65,0.157488299212297,1
43,271,65,0.140409052019737,1
43,272,65,0.168790969951184,1
43,273,65,0.170524336234619,1
44,249,65,0.114893105153566,1
44,250,65,0.118191416756069,1
44,270,65,0.148449907664658,1
44,271,65,0.153790728289889,1
44,272,65,0.141298228976009,1
44,273,65,0.124622963626725,1
45,248,65,0.116529524273959,1
45,249,65,0.169755660173908,1
45,250,65,0.144447963633791,1
45,270,65,0.147508358984133,1
45,271,65,0.142188277420384,1
46,247,65,0.123355914139673,1
46,248,65,0.143164673848168,1
46,249,65,0.165901186062333,1
46,250,65,0.120430764321447,1
47,246,65,0.161246155913084,1
47,247,65,0.189367451794224,1
47,248,65,0.173603256595587,1
47,249,65,0.159779594534743,1
48,246,65,0.226662891160369,1
48,247,65,0.25542421261521,1
48,248,65,0.198222889724533,1
48,249,65,0.161251596825296,1
49,246,65,0.263849618274079,1
49,247,65,0.276972862991047,1
49,248,65,0.195550177034564,1
49,249,65,0.151557928662151,1
49,282,65,0.139715959886675,1
50,246,65,0.235316885793321,1
50,247,65,0.230655248822101,1
50,248,65,0.164407796982654,1
50,249,65,0.128372517636799,1
50,281,65,0.125719495867215,1
50,282,65,0.137207593365347,1
51,247,65,0.218754537037726,1
51,248,65,0.1651475608367,1
51,249,65,0.124545448293009,1
51,281,65,0.152721518379119,1
51,282,65,0.155776802569505,1
51,283,65,0.120125036873368,1
52,247,65,0.276939204707279,1
52,248,65,0.198067576412312,1
52,249,65,0.133209618138409,1
52,250,65,0.119569015686692,1
52,281,65,0.140557099005477,1
52,282,65,0.144357069780005,1
53,248,65,0.16997946774029,1
55,280,65,0.147501740385296,1
55,281,65,0.149871669843751,1
55,282,65,0.114930084513619,1
56,280,65,0.160372241775484,1
56,281,65,0.160356343006035,1
56,282,65,0.117252447209255,1
57,280,65,0.116302642945483,1
57,281,65,0.121142169481542,1
58,255,65,0.116992614208987,1
59,281,65,0.114367821587825,1
73,265,65,0.123457053867104,1
73,266,65,0.142644854748371,1
74,266,65,0.24697157884155,1
74,267,65,0.155700830005269,1
75,267,65,0.15140906907264,1
42,272,66,0.123289386622177,1
42,273,66,0.138736984325179,1
43,271,66,0.13291305309228,1
43,272,66,0.161131496343189,1
43,273,66,0.170306464208832,1
43,274,66,0.123104902012233,1
44,250,66,0.1219075833503,1
44,270,66,0.139587992457906,1
44,271,66,0.15647637197901,1
44,272,66,0.154715836465116,1
44,273,66,0.137367016803892,1
45,249,66,0.135471329972812,1
45,250,66,0.137232183462095,1
45,270,66,0.13398015494399,1
45,271,66,0.132544755153769,1
46,248,66,0.117048719199844,1
46,249,66,0.142794986239438,1
46,250,66,0.12163529042553,1
47,247,66,0.156044054995516,1
47,248,66,0.153050446253727,1
47,249,66,0.158277255036707,1
47,250,66,0.119579956395446,1
48,247,66,0.241880109805617,1
48,248,66,0.199166098943201,1
48,249,66,0.176167445462981,1
48,250,66,0.126762502250559,1
49,247,66,0.290739053944548,1
49,248,66,0.215590752578498,1
49,249,66,0.16680331757149,1
49,250,66,0.123118056771844,1
50,247,66,0.239531378706427,1
50,248,66,0.181188371070024,1
50,249,66,0.139323248504409,1
50,250,66,0.115320899820417,1
50,282,66,0.131145345466835,1
51,248,66,0.172677288709123,1
51,249,66,0.138326525205462,1
51,250,66,0.126298293513236,1
51,282,66,0.138224937957113,1
52,248,66,0.204852841461051,1
52,249,66,0.156054324422894,1
52,250,66,0.140702213551518,1
52,251,66,0.122185470286542,1
52,282,66,0.128712162459703,1
53,249,66,0.136640690354247,1
53,250,66,0.115724116167386,1
55,280,66,0.121304607797849,1
55,281,66,0.139920889136444,1
56,280,66,0.148560245124636,1
56,281,66,0.1693920729819,1
56,282,66,0.120272023941144,1
57,281,66,0.128349964937914,1
59,281,66,0.115699408301975,1
73,266,66,0.138748761191438,1
74,267,66,0.173683127302554,1
42,273,67,0.115108621806102,1
43,271,67,0.128170497272996,1
43,272,67,0.169542546002088,1
43,273,67,0.172032764372511,1
43,274,67,0.127404506337791,1
44,271,67,0.148712331575503,1
44,272,67,0.178466478186559,1
44,273,67,0.154851376418889,1
44,278,67,0.127453062357376,1
47,248,67,0.148351111533613,1
47,249,67,0.162710032165919,1
48,248,67,0.202711736514004,1
48,249,67,0.187362534528594,1
48,282,67,0.164089880477998,1
49,248,67,0.229291134403345,1
49,249,67,0.173799129435203,1
49,282,67,0.136527302685907,1
50,248,67,0.208585872527765,1
50,249,67,0.151769806263013,1
50,282,67,0.128699419890411,1
50,283,67,0.148994363968668,1
51,249,67,0.147785751291993,1
51,282,67,0.131658345761068,1
51,283,67,0.147644711541678,1
52,249,67,0.167180389275364,1
52,282,67,0.123247802507417,1
52,283,67,0.132783790208223,1
55,281,67,0.121292501179335,1
56,280,67,0.126341373290011,1
56,281,67,0.159760245143479,1
57,281,67,0.13009157502773,1
73,266,67,0.134792228756865,1
74,266,67,0.186781204856327,1
74,267,67,0.167301997196352,1
75,267,67,0.165533630066396,1
43,271,68,0.116950241044188,1
43,272,68,0.165751584530248,1
43,273,68,0.162700163151994,1
43,274,68,0.121634666251618,1
44,271,68,0.130707728893524,1
44,272,68,0.178839121788719,1
44,273,68,0.15616539204858,1
44,278,68,0.133267925403256,1
48,282,68,0.13183921487307,1
49,282,68,0.123106103252591,1
49,283,68,0.149632422805704,1
50,282,68,0.120832767651191,1
50,283,68,0.153037044179925,1
51,282,68,0.121064913238884,1
51,283,68,0.149998023841842,1
52,283,68,0.131205749013876,1
56,281,68,0.127760685880922,1
57,281,68,0.119646672342802,1
62,284,68,0.120206968531931,1
73,266,68,0.125015415917933,1
74,266,68,0.147518275105523,1
74,267,68,0.143972272451865,1
75,267,68,0.148040779330827,1
77,271,68,0.116397752917389,1
43,272,69,0.145967403141635,1
43,273,69,0.143131627961446,1
44,271,69,0.1157034830977,1
44,272,69,0.155481591862996,1
44,273,69,0.141474599325101,1
44,277,69,0.118791930943471,1
44,278,69,0.119510272677793,1
44,279,69,0.114831417928103,1
44,280,69,0.124660614268154,1
45,280,69,0.117642355697351,1
45,281,69,0.132383753615145,1
49,283,69,0.137781644934266,1
50,283,69,0.144243034384021,1
51,283,69,0.141305978154007,1
52,283,69,0.121563604640613,1
74,266,69,0.119337364727381,1
74,267,69,0.118588179380328,1
75,267,69,0.124331109327099,1
77,271,69,0.132180649779645,1
77,279,69,0.133417350282348,1
44,273,70,0.11394303002187,1
44,276,70,0.126549034772752,1
44,277,70,0.127168097524512,1
44,278,70,0.114065568315293,1
44,279,70,0.117013765460788,1
45,279,70,0.118051130725194,1
45,280,70,0.122541261193087,1
76,271,70,0.114663385600322,1
