x,y,z,signal,mito.p
349,34,45,0.142789309789902,1
349,36,45,0.167534319437039,1
350,33,45,0.140263007101262,1
350,34,45,0.182722331453965,1
350,35,45,0.258384516379218,2
350,36,45,0.262441764574037,1
350,37,45,0.151940559046899,1
350,40,45,0.14149377206337,1
350,41,45,0.128230076439399,1
351,34,45,0.193419612382819,1
351,35,45,0.264057479963546,1
351,36,45,0.260836153735777,1
351,40,45,0.189747349946001,1
351,41,45,0.153703815016899,1
351,42,45,0.145639134771537,1
352,42,45,0.171688279257575,1
352,43,45,0.240169637750189,1
353,43,45,0.220833177486137,1
353,44,45,0.213748944910552,1
354,43,45,0.179225179241549,1
354,44,45,0.183333821680721,1
368,48,45,0.194824451205098,1
347,36,46,0.187632790055501,1
347,37,46,0.206973666644401,1
347,38,46,0.154603237846816,1
348,33,46,0.162233681479483,1
348,34,46,0.196928576792093,1
348,35,46,0.172523341513388,1
348,36,46,0.145453201607043,1
348,37,46,0.136329204018568,1
348,41,46,0.130363891506232,1
349,32,46,0.116038099198711,1
349,33,46,0.165676424569784,1
349,34,46,0.193057261761768,1
349,35,46,0.214368148984707,2
349,36,46,0.194180032860283,1
349,37,46,0.130355635922985,1
349,40,46,0.124239143778484,1
349,41,46,0.132244009320118,1
349,42,46,0.133413781891872,1
349,43,46,0.155079082128002,1
350,25,46,0.125153464344218,1
350,26,46,0.197028880362019,1
350,27,46,0.197036770862412,1
350,28,46,0.119815905910941,1
350,32,46,0.118507024994938,1
350,33,46,0.188882609987216,1
350,34,46,0.249907221847613,2
350,35,46,0.33835987257996,2
350,36,46,0.321933169769934,2
350,37,46,0.178821986448313,1
350,39,46,0.118734919133912,1
350,40,46,0.158427245205379,1
350,41,46,0.147301321675303,1
350,42,46,0.122398136937444,1
351,26,46,0.126230859177038,1
351,27,46,0.117765871470673,1
351,33,46,0.146324018428817,1
351,34,46,0.202458109922255,1
351,35,46,0.290266660285175,2
351,36,46,0.291358705539621,1
351,37,46,0.166757128702023,1
351,39,46,0.129317222517481,1
351,40,46,0.189132114675775,1
351,41,46,0.16972728970309,1
351,42,46,0.138503472621,1
351,43,46,0.159426618299234,1
352,35,46,0.145480677036025,1
352,36,46,0.14563893456481,1
352,40,46,0.132709831488118,1
352,41,46,0.133477647837593,1
352,42,46,0.151357533505891,1
352,43,46,0.206093628536346,1
352,44,46,0.217544440475902,1
352,45,46,0.267633266311973,1
353,42,46,0.139941981503913,1
353,43,46,0.207659904641301,1
353,44,46,0.225702935237882,1
353,45,46,0.185670422607664,1
353,46,46,0.191592985095481,1
354,40,46,0.136756409842106,1
354,41,46,0.143186684811206,1
354,42,46,0.131390363169349,1
354,43,46,0.162177270290104,1
354,44,46,0.184252040389187,1
354,45,46,0.121540769296937,1
355,40,46,0.135357647882816,1
355,41,46,0.135265752995399,1
355,44,46,0.118005295161715,1
356,49,46,0.136654457510904,1
367,48,46,0.124908576187233,1
367,49,46,0.122942828778779,1
368,47,46,0.156794217822469,1
368,48,46,0.193194591799212,1
368,49,46,0.161973907363547,1
369,46,46,0.162248791198893,1
369,47,46,0.200144638760644,1
369,48,46,0.174389409525827,1
346,36,47,0.18497072365263,1
346,37,47,0.24199118920817,1
346,38,47,0.234522865916421,1
346,39,47,0.154846960094042,1
347,33,47,0.180102190694975,1
347,34,47,0.238911279590436,1
347,35,47,0.213557193974126,1
347,36,47,0.188237308377431,1
347,37,47,0.212302675072774,1
347,38,47,0.200341571518224,1
347,39,47,0.149339343711987,1
347,40,47,0.128111012321523,1
347,41,47,0.161283794777648,1
348,32,47,0.118059256762913,1
348,33,47,0.17257533637792,1
348,34,47,0.20909486868747,1
348,35,47,0.182610180356583,1
348,36,47,0.154337693066412,1
348,37,47,0.1497393685282,1
348,38,47,0.14379965892311,1
348,39,47,0.132184324161918,1
348,40,47,0.136038362529441,1
348,41,47,0.157258756312047,1
348,42,47,0.195061790390812,1
348,43,47,0.202072865073197,1
349,25,47,0.124406646147283,1
349,26,47,0.160410116177372,1
349,27,47,0.17388133196169,1
349,28,47,0.134533644104421,1
349,32,47,0.134196896390617,1
349,33,47,0.215766274993219,1
349,34,47,0.254078776306339,1
349,35,47,0.241933529670967,2
349,36,47,0.203950686398162,1
349,37,47,0.164252566108497,1
349,38,47,0.145732454659772,1
349,39,47,0.135966664967657,1
349,40,47,0.149681685437264,1
349,41,47,0.152623417083183,1
349,42,47,0.142403158122142,1
349,43,47,0.145374791231492,1
349,44,47,0.122371521219699,1
350,24,47,0.120710382457029,1
350,25,47,0.129088786642659,1
350,26,47,0.168339915973472,1
350,27,47,0.178258333852301,1
350,28,47,0.128907328687344,1
350,32,47,0.128874329908087,1
350,33,47,0.223827233748843,1
350,34,47,0.299639985909215,2
350,35,47,0.355814248293461,2
350,36,47,0.320150340648212,2
350,37,47,0.209492832552087,1
350,38,47,0.146450172220181,1
350,39,47,0.130764505165758,1
350,40,47,0.15923933079512,1
350,41,47,0.156774362025956,1
350,42,47,0.12179555002158,1
350,43,47,0.121580610435491,1
351,22,47,0.121217623863662,1
351,23,47,0.130771182648926,1
351,24,47,0.121573508985137,1
351,26,47,0.116277617104683,1
351,27,47,0.114157498533309,1
351,33,47,0.134258454070551,1
351,34,47,0.191725569055822,1
351,35,47,0.271997702286285,2
351,36,47,0.272578466668972,1
351,37,47,0.16915125962064,1
351,40,47,0.16090220075713,1
351,41,47,0.162428824153392,1
351,42,47,0.123566743599438,1
351,43,47,0.127452697274522,1
351,44,47,0.138489057736699,1
351,45,47,0.177757828813168,1
352,35,47,0.122795405966952,1
352,36,47,0.129296083042547,1
352,40,47,0.126150387849892,1
352,41,47,0.132055814997302,1
352,42,47,0.121694304302353,1
352,43,47,0.147835543882535,1
352,44,47,0.172519019403471,1
352,45,47,0.205909509009256,1
352,46,47,0.294928674116116,1
353,42,47,0.118751748275796,1
353,43,47,0.164111667680576,1
353,44,47,0.19614646332698,1
353,45,47,0.163902027684303,1
353,46,47,0.173456799486792,1
353,47,47,0.174010912821135,1
354,43,47,0.137730450896639,1
354,44,47,0.163091873500628,1
354,45,47,0.119184312573482,1
354,48,47,0.126442395248779,1
355,48,47,0.137006703580704,1
355,49,47,0.192836775271671,1
355,50,47,0.157763536353632,1
356,49,47,0.132950114890396,1
368,47,47,0.126988017462549,1
368,48,47,0.155700241161956,1
368,49,47,0.13500652061531,1
369,46,47,0.144070244202272,1
369,47,47,0.175301480710105,1
369,48,47,0.158569297766192,1
370,46,47,0.146424910842056,1
370,47,47,0.140496789673365,1
345,36,48,0.15354478021494,1
345,37,48,0.190782053638632,1
345,38,48,0.200458869106161,1
345,39,48,0.142371242814581,1
346,33,48,0.153322703847898,1
346,34,48,0.188569439559662,1
346,35,48,0.182655356415552,1
346,36,48,0.179920026127684,1
346,37,48,0.234033136709915,1
346,38,48,0.264715783233681,1
346,39,48,0.180686287930813,1
346,40,48,0.125557375526296,1
346,41,48,0.151059001723097,1
347,33,48,0.16209565660693,1
347,34,48,0.207419703677086,1
347,35,48,0.19862598830284,1
347,36,48,0.178815250080813,1
347,37,48,0.195112890213509,1
347,38,48,0.221202829764268,1
347,39,48,0.18459555980109,1
347,40,48,0.153785487584404,1
347,41,48,0.207513023565321,1
347,42,48,0.312676435121856,3
347,43,48,0.282471552508477,1
348,32,48,0.119052812084836,1
348,33,48,0.172711182530215,1
348,34,48,0.212169054748202,1
348,35,48,0.18636583478338,1
348,36,48,0.161966570375868,1
348,37,48,0.161403082655983,1
348,38,48,0.169698848571075,1
348,39,48,0.163690809587952,1
348,40,48,0.159870453057929,1
348,41,48,0.185502449164215,1
348,42,48,0.240270047311911,1
348,43,48,0.226889360298526,1
348,44,48,0.145020236895904,1
349,24,48,0.126047328493261,1
349,25,48,0.131508779559581,1
349,26,48,0.143944455493762,1
349,27,48,0.155614646897988,1
349,28,48,0.132044697635554,1
349,32,48,0.141210067355196,1
349,33,48,0.247695597025409,1
349,34,48,0.309491334534699,1
349,35,48,0.253318862234124,1
349,36,48,0.208108014402448,1
349,37,48,0.211372184869666,1
349,38,48,0.199486076399452,1
349,39,48,0.166778138631428,1
349,40,48,0.162972668060357,1
349,41,48,0.161244884011529,1
349,42,48,0.147840136860376,1
349,43,48,0.134464878982336,1
350,22,48,0.12575139939791,1
350,23,48,0.15853606344961,1
350,24,48,0.158724540417216,1
350,25,48,0.135748851826201,1
350,26,48,0.135145522967763,1
350,27,48,0.144431110938174,1
350,28,48,0.124121610653221,1
350,32,48,0.124860844548286,1
350,33,48,0.22795978322652,1
350,34,48,0.312134652166486,1
350,35,48,0.310367627599284,2
350,36,48,0.276510974296377,1
350,37,48,0.242766507421451,1
350,38,48,0.194056729070554,1
350,39,48,0.145545237816855,1
350,40,48,0.149144483682869,1
350,41,48,0.149564411403059,1
350,42,48,0.117190583330797,1
351,22,48,0.124801159390086,1
351,23,48,0.148530826512722,1
351,24,48,0.134104318444956,1
351,33,48,0.118372462521065,1
351,34,48,0.169765964931884,1
351,35,48,0.217248652702946,1
351,36,48,0.21664777343269,1
351,37,48,0.160152473674229,1
351,40,48,0.131326685653487,1
351,41,48,0.138465621772844,1
351,45,48,0.124451092040544,1
351,46,48,0.186821293309072,1
352,40,48,0.1246313840861,1
352,41,48,0.122366951795591,1
352,44,48,0.123704050083149,1
352,45,48,0.145472433229644,1
352,46,48,0.213181394171808,1
352,47,48,0.234440922480992,1
353,43,48,0.120912685465623,1
353,44,48,0.146162852014066,1
353,45,48,0.134998253255196,1
353,46,48,0.146790794522985,1
353,47,48,0.164504437947174,1
353,48,48,0.136980606045075,1
354,44,48,0.127837883239249,1
354,48,48,0.128854768533231,1
354,49,48,0.161699011751334,1
354,50,48,0.146007102957793,1
355,19,48,0.116678902045585,1
355,48,48,0.118817074552934,1
355,49,48,0.179236861892878,1
355,50,48,0.170803283088825,1
369,46,48,0.118505140696337,1
369,47,48,0.132867205751935,1
369,48,48,0.12205184996197,1
370,36,48,0.143805064504723,1
370,37,48,0.161962177604753,1
370,46,48,0.117886348812501,1
370,47,48,0.113875313040882,1
345,34,49,0.13903946135817,1
345,35,49,0.141884999560487,1
345,36,49,0.148612228212303,1
345,37,49,0.17991427901695,1
345,38,49,0.202404902040498,1
345,39,49,0.149901759737042,1
346,33,49,0.145457559047559,1
346,34,49,0.169046610387064,1
346,35,49,0.165351571490901,1
346,36,49,0.163897587805724,1
346,37,49,0.205392339704367,1
346,38,49,0.251955336658681,1
346,39,49,0.188738590689737,1
346,40,49,0.136009615198903,1
346,41,49,0.16108776883877,1
346,42,49,0.207709037727332,3
347,33,49,0.141366075502526,1
347,34,49,0.170103843224849,1
347,35,49,0.175510555416798,1
347,36,49,0.166903750686945,1
347,37,49,0.174103243452604,1
347,38,49,0.216968033533732,1
347,39,49,0.210576422016559,1
347,40,49,0.184430589458536,1
347,41,49,0.243030827407764,3
347,42,49,0.351493834245224,3
347,43,49,0.289527308621448,3
348,26,49,0.114064708604056,1
348,27,49,0.118265340145575,1
348,32,49,0.120608606778821,1
348,33,49,0.166021840057155,1
348,34,49,0.207333332139944,1
348,35,49,0.189441622497922,1
348,36,49,0.173847638347323,1
348,37,49,0.173422128392527,1
348,38,49,0.18457475007841,1
348,39,49,0.190957846921277,1
348,40,49,0.186011280447792,1
348,41,49,0.211910764517414,1
348,42,49,0.272556161284278,3
348,43,49,0.235446195784843,1
348,44,49,0.136266233114682,1
349,23,49,0.139097379986431,1
349,24,49,0.172121750373963,1
349,25,49,0.154811723710195,1
349,26,49,0.142411154614332,1
349,27,49,0.148044960118349,1
349,28,49,0.128636001465607,1
349,32,49,0.137699854598098,1
349,33,49,0.238557125668302,1
349,34,49,0.31237765602487,1
349,35,49,0.24324709777974,1
349,36,49,0.209918801804668,1
349,37,49,0.241277416897956,1
349,38,49,0.230594456638473,1
349,39,49,0.185740612730566,1
349,40,49,0.166196031685988,1
349,41,49,0.160501104246088,1
349,42,49,0.153266386873448,1
349,43,49,0.131520050020591,1
350,22,49,0.133936286117176,1
350,23,49,0.209131306311675,1
350,24,49,0.231725765965026,1
350,25,49,0.165449154604722,1
350,26,49,0.12476910276013,1
350,27,49,0.126793616731215,1
350,28,49,0.116811179807404,1
350,32,49,0.11540522218283,1
350,33,49,0.20060396009847,1
350,34,49,0.273062731409534,1
350,35,49,0.236766641583512,1
350,36,49,0.220467482235068,1
350,37,49,0.246899881279767,1
350,38,49,0.21875990728874,1
350,39,49,0.154536109709141,1
350,40,49,0.133531574108192,1
350,41,49,0.132372706914594,1
351,22,49,0.126528507694863,1
351,23,49,0.172113718551174,1
351,24,49,0.163163170648959,1
351,25,49,0.11619068027796,1
351,34,49,0.139086368616479,1
351,35,49,0.153525854790862,1
351,36,49,0.154408966661011,1
351,37,49,0.140439365673487,1
351,38,49,0.115490828223665,1
351,41,49,0.117500915533583,1
351,46,49,0.138343919636926,1
351,47,49,0.161936928003494,1
352,40,49,0.12872167816764,1
352,41,49,0.117710967720175,1
352,46,49,0.14729535080411,1
352,47,49,0.175358751610722,1
352,48,49,0.139082388035684,1
353,40,49,0.12618143166935,1
353,46,49,0.120707979976312,1
353,47,49,0.147176357347431,1
353,48,49,0.141594676253475,1
353,49,49,0.122668439571816,1
354,47,49,0.120294800400489,1
354,48,49,0.145445570197707,1
354,49,49,0.163312536643719,1
354,50,49,0.148964109199249,1
355,18,49,0.120926970804395,1
355,19,49,0.14889768767355,1
355,48,49,0.114514526010811,1
355,49,49,0.156203843516915,1
355,50,49,0.160303829959387,1
356,19,49,0.128658024205511,1
370,36,49,0.122484378929057,1
370,37,49,0.149985728793468,1
371,36,49,0.147392392182083,1
371,37,49,0.166129939912544,1
345,34,50,0.131851674797572,1
345,35,50,0.126435070037966,1
345,36,50,0.138238693336903,1
345,37,50,0.166623590815514,1
345,38,50,0.187177402191006,1
345,39,50,0.144962718681097,1
346,33,50,0.137735467841665,1
346,34,50,0.148288576373779,1
346,35,50,0.144205136428401,1
346,36,50,0.148444584521109,1
346,37,50,0.17698731556132,1
346,38,50,0.211824204550412,1
346,39,50,0.178832244098824,1
346,40,50,0.153844136378372,1
346,41,50,0.165229080304944,1
346,42,50,0.190575852487307,1
347,33,50,0.131427578066727,1
347,34,50,0.155171789619192,1
347,35,50,0.167025441045997,1
347,36,50,0.164090834404165,1
347,37,50,0.167192401678948,1
347,38,50,0.200511017069955,1
347,39,50,0.215668103036086,1
347,40,50,0.218218077225905,1
347,41,50,0.258817433982892,1
347,42,50,0.336412614851533,3
347,43,50,0.256485025620337,1
348,24,50,0.114782214180873,1
348,26,50,0.1153194748196,1
348,27,50,0.12738587533537,1
348,28,50,0.130153497790519,1
348,29,50,0.118710317260298,1
348,32,50,0.123689211231663,1
348,33,50,0.157668862125777,1
348,34,50,0.202385069797718,1
348,35,50,0.20506482505371,1
348,36,50,0.198822826845489,1
348,37,50,0.196805555647153,1
348,38,50,0.202177255215715,1
348,39,50,0.213475721613348,1
348,40,50,0.218695487830305,1
348,41,50,0.238214395306438,1
348,42,50,0.295419157042062,1
348,43,50,0.236122376337958,1
348,44,50,0.127016482148296,1
349,23,50,0.155187582396845,1
349,24,50,0.202404619395707,1
349,25,50,0.167674499476118,1
349,26,50,0.141106690023176,1
349,27,50,0.14524866099386,1
349,28,50,0.136316037482091,1
349,29,50,0.11520810099539,1
349,32,50,0.131404248094668,1
349,33,50,0.199792180707251,1
349,34,50,0.264996897031278,1
349,35,50,0.227940492719588,1
349,36,50,0.217840134033928,1
349,37,50,0.252175587611453,1
349,38,50,0.239663892005571,1
349,39,50,0.196867148657687,1
349,40,50,0.168311380626527,1
349,41,50,0.158260449448555,1
349,42,50,0.162507941140918,1
349,43,50,0.134091410999537,1
350,22,50,0.135468150218923,1
350,23,50,0.226217702062054,1
350,24,50,0.275343533544142,1
350,25,50,0.187246544172811,1
350,26,50,0.126395134684482,1
350,27,50,0.122714074928569,1
350,28,50,0.117303087734168,1
350,33,50,0.1596634157491,1
350,34,50,0.207583166580758,1
350,35,50,0.17759299979301,1
350,36,50,0.179746505780227,1
350,37,50,0.22606217676624,1
350,38,50,0.218462282324648,1
350,39,50,0.161844891793682,1
350,40,50,0.123139372899773,1
350,41,50,0.114254327927689,1
351,22,50,0.124021083322836,1
351,23,50,0.175494008919704,1
351,24,50,0.181110290446729,1
351,25,50,0.125978810685367,1
351,37,50,0.124712338264763,1
351,38,50,0.122662056510303,1
351,46,50,0.118553437624864,1
351,47,50,0.154084678871708,1
352,40,50,0.125337042135461,1
352,41,50,0.117127683088109,1
352,47,50,0.133352306650001,1
352,48,50,0.121322025783046,1
353,40,50,0.130653979275919,1
353,47,50,0.125617178453159,1
353,48,50,0.141805906126693,1
353,49,50,0.124401735194053,1
354,19,50,0.119222681603753,1
354,47,50,0.11615769327557,1
354,48,50,0.148123111402842,1
354,49,50,0.147027474204188,1
354,50,50,0.130624996408056,1
355,18,50,0.129859806299757,1
355,19,50,0.163612187228808,1
355,20,50,0.117204150280728,1
355,49,50,0.124549676187996,1
355,50,50,0.129401674425423,1
356,18,50,0.122970975489138,1
356,19,50,0.143269841263859,1
367,54,50,0.124485527597484,1
370,37,50,0.116645443968544,1
371,36,50,0.113959953378684,1
371,37,50,0.136187116127156,1
345,35,51,0.123428506743292,1
345,36,51,0.13685313324469,1
345,37,51,0.155938263405913,1
345,38,51,0.162952930032507,1
346,32,51,0.120557683609118,1
346,33,51,0.14186018570328,1
346,34,51,0.142175876380213,1
346,35,51,0.139394109908688,1
346,36,51,0.148358554513088,1
346,37,51,0.164097865193321,1
346,38,51,0.176797861113815,1
346,39,51,0.160178936292712,1
346,40,51,0.166537231055238,1
346,41,51,0.159778946807098,1
347,28,51,0.126767754732911,1
347,29,51,0.123737602375121,1
347,32,51,0.11795529058758,1
347,33,51,0.137565009479435,1
347,34,51,0.163220417995843,1
347,35,51,0.180153679154259,1
347,36,51,0.179913277983318,1
347,37,51,0.186255202901744,1
347,38,51,0.207143913023038,1
347,39,51,0.213790423033515,1
347,40,51,0.239432594352248,1
347,41,51,0.24834040400681,1
347,42,51,0.27963785005675,1
347,43,51,0.212360334609977,1
348,23,51,0.127758059639747,1
348,24,51,0.131847293803324,1
348,25,51,0.125825923407596,1
348,26,51,0.125626635276764,1
348,27,51,0.140628243054546,1
348,28,51,0.167090331579083,1
348,29,51,0.156603491473408,1
348,30,51,0.12199150529926,1
348,32,51,0.134089997775586,1
348,33,51,0.155165335896482,1
348,34,51,0.204450779246976,1
348,35,51,0.242342846434657,1
348,36,51,0.244781034609949,1
348,37,51,0.243625135186648,1
348,38,51,0.250441656038437,1
348,39,51,0.243901208485487,1
348,40,51,0.247610214745032,1
348,41,51,0.252495447299042,1
348,42,51,0.295856220102658,1
348,43,51,0.230289718447161,1
348,44,51,0.120414052948225,1
349,22,51,0.125642404500685,1
349,23,51,0.169955513594319,1
349,24,51,0.220677934835113,1
349,25,51,0.185672671989119,1
349,26,51,0.151907866466165,1
349,27,51,0.148122769873721,1
349,28,51,0.156278155543008,1
349,29,51,0.142331495890957,1
349,30,51,0.117390130552686,1
349,32,51,0.13596889079538,1
349,33,51,0.165016708075699,1
349,34,51,0.216394005518545,1
349,35,51,0.239555003100142,1
349,36,51,0.248515714437939,1
349,37,51,0.260913480639633,1
349,38,51,0.252455335292564,1
349,39,51,0.218945864006967,1
349,40,51,0.186327913274026,1
349,41,51,0.16899320229858,1
349,42,51,0.181010752373109,1
349,43,51,0.146181742107545,1
350,21,51,0.117263705893398,1
350,22,51,0.139485239299798,1
350,23,51,0.219631819359077,1
350,24,51,0.286021076445146,1
350,25,51,0.213277328524352,1
350,26,51,0.147576971006957,1
350,27,51,0.129464315577054,1
350,28,51,0.127549173362914,1
350,33,51,0.128261037820794,1
350,34,51,0.158661369306604,1
350,35,51,0.15977783978167,1
350,36,51,0.171754217931758,1
350,37,51,0.201679965261071,1
350,38,51,0.207213702732487,1
350,39,51,0.173263070036835,1
350,40,51,0.132114546229335,1
350,46,51,0.120282258037923,1
351,22,51,0.12137225411764,1
351,23,51,0.165618352842262,1
351,24,51,0.190166677046011,1
351,25,51,0.149279328801532,1
351,26,51,0.117056963006225,1
351,37,51,0.127850437378681,1
351,38,51,0.140902561600312,1
351,39,51,0.129760174011207,1
351,46,51,0.114261288055648,1
351,47,51,0.159333310187866,1
352,40,51,0.121767862609006,1
352,41,51,0.123097188164834,1
352,47,51,0.1183839685194,1
352,48,51,0.114922629757277,1
353,40,51,0.12114472506152,1
353,41,51,0.12144859176473,1
353,47,51,0.117041111344241,1
353,48,51,0.139343598929304,1
353,49,51,0.123193829129353,1
354,19,51,0.120065198615907,1
354,48,51,0.14053196717288,1
354,49,51,0.127553495472831,1
355,18,51,0.124531210061702,1
355,19,51,0.158682897418125,1
355,20,51,0.118053038577528,1
356,18,51,0.124703776482992,1
356,19,51,0.142422695943265,1
366,55,51,0.160039580634272,1
374,38,51,0.140658615592627,1
346,32,52,0.119755384595237,1
346,33,52,0.134988254695743,1
346,34,52,0.129797824652637,1
346,35,52,0.129851197410521,1
346,36,52,0.140551363671609,1
346,37,52,0.147851890172902,1
346,38,52,0.14795801151476,1
346,39,52,0.142244641502299,1
346,40,52,0.164512893737147,1
347,27,52,0.115514758815903,1
347,28,52,0.144074366105463,1
347,29,52,0.145634318033237,1
347,32,52,0.11872132863025,1
347,33,52,0.137335443025452,1
347,34,52,0.159212738631108,1
347,35,52,0.177292819248939,1
347,36,52,0.178990183652221,1
347,37,52,0.191040449861217,1
347,38,52,0.21341240918034,1
347,39,52,0.206665748699198,1
347,40,52,0.233443139264082,1
347,41,52,0.223537287301552,1
347,42,52,0.218525594757655,1
348,24,52,0.149626499041975,1
348,25,52,0.140120624788193,1
348,26,52,0.131713402610828,1
348,27,52,0.145260426083253,1
348,28,52,0.195709306051453,1
348,29,52,0.196333008888519,1
348,30,52,0.136813209668072,1
348,31,52,0.119100944137236,1
348,32,52,0.147317809288066,1
348,33,52,0.161311352644693,1
348,34,52,0.203651601102654,1
348,35,52,0.26298076818897,1
348,36,52,0.26595287237297,1
348,37,52,0.267031044478963,1
348,38,52,0.297797330306899,1
348,39,52,0.272795891173842,1
348,40,52,0.259217187931181,1
348,41,52,0.250271786519521,1
348,42,52,0.266072925747612,1
348,43,52,0.207423660704149,1
349,22,52,0.143318774143165,1
349,23,52,0.185712030276156,1
349,24,52,0.221509169609391,1
349,25,52,0.198550734127446,1
349,26,52,0.159000590162322,1
349,27,52,0.144827755793771,1
349,28,52,0.170420275844357,1
349,29,52,0.171103322310501,1
349,30,52,0.130166417012804,1
349,31,52,0.122024327425523,1
349,32,52,0.152237665828876,1
349,33,52,0.159368063720195,1
349,34,52,0.195880706562984,1
349,35,52,0.260690356131493,1
349,36,52,0.268172717447823,1
349,37,52,0.252561633287416,1
349,38,52,0.266467309444887,1
349,39,52,0.248328815570412,1
349,40,52,0.211845732661933,1
349,41,52,0.185523800622742,1
349,42,52,0.189646221995436,1
349,43,52,0.151955233022258,1
350,21,52,0.1177189171049,1
350,22,52,0.142660576864827,1
350,23,52,0.199565688015362,1
350,24,52,0.261818014629506,1
350,25,52,0.233759371676863,1
350,26,52,0.171368890644636,1
350,27,52,0.133014298811507,1
350,28,52,0.133765486225824,1
350,29,52,0.129249576197691,1
350,33,52,0.11668760514975,1
350,34,52,0.135820643602915,1
350,35,52,0.159655148388986,1
350,36,52,0.169152602183393,1
350,37,52,0.177928828911246,1
350,38,52,0.195448825323541,1
350,39,52,0.182312037210375,1
350,40,52,0.145255256038965,1
350,41,52,0.118039318528336,1
351,22,52,0.119507481560489,1
351,23,52,0.15271694895501,1
351,24,52,0.191663422532575,1
351,25,52,0.179572679234247,1
351,26,52,0.142429608963759,1
351,37,52,0.134103388072522,1
351,38,52,0.163064327410449,1
351,39,52,0.150932683055605,1
351,40,52,0.1191414447803,1
352,38,52,0.126505813673582,1
352,39,52,0.123436832987737,1
352,40,52,0.11631436092741,1
352,41,52,0.119223305777665,1
353,41,52,0.12400470170187,1
353,48,52,0.125075901903038,1
353,49,52,0.121219767253321,1
354,19,52,0.117854327513143,1
354,48,52,0.121264966866022,1
354,49,52,0.11414927828066,1
355,19,52,0.144623403610448,1
355,20,52,0.121683775783918,1
356,18,52,0.114648311211511,1
356,19,52,0.130971836896244,1
361,19,52,0.148351771038123,1
362,19,52,0.133737162862472,1
365,56,52,0.132622364702414,1
366,55,52,0.121341245628781,1
366,56,52,0.19616742614892,1
367,55,52,0.140508919845612,1
373,35,52,0.11670388077892,1
373,36,52,0.139708069386281,1
373,37,52,0.144221082305315,1
373,38,52,0.124673922127026,1
374,37,52,0.122431371254026,1
374,38,52,0.142867425743796,1
374,39,52,0.145122318772636,1
375,38,52,0.170666424126032,1
375,39,52,0.202311111077612,1
378,31,52,0.125612915227573,1
378,32,52,0.123870433649654,1
379,30,52,0.121906123018884,1
379,31,52,0.171636673029629,1
379,32,52,0.146546872069032,1
346,28,53,0.122546007270189,1
346,29,53,0.123796875343001,1
346,32,53,0.1170663609455,1
346,33,53,0.125089551291032,1
346,34,53,0.12079486969557,1
346,35,53,0.125839113497806,1
346,36,53,0.136872600404615,1
346,37,53,0.141163301419282,1
346,38,53,0.138388659951843,1
347,26,53,0.119206971264164,1
347,27,53,0.122874322747752,1
347,28,53,0.154061313569051,1
347,29,53,0.164690029582546,1
347,30,53,0.122012373906271,1
347,32,53,0.117355282805427,1
347,33,53,0.136820640870682,1
347,34,53,0.152433468007295,1
347,35,53,0.174781555618512,1
347,36,53,0.187168180904725,1
347,37,53,0.202784800192274,1
347,38,53,0.222746753377064,1
347,39,53,0.200071881280897,1
347,40,53,0.202171508104981,1
348,24,53,0.173979433257625,1
348,25,53,0.158884411376679,1
348,26,53,0.144850131839662,1
348,27,53,0.151413732711678,1
348,28,53,0.207192245282164,1
348,29,53,0.224806291748402,1
348,30,53,0.15253563232209,1
348,31,53,0.122191464711468,1
348,32,53,0.151888799719692,1
348,33,53,0.176540854561449,1
348,34,53,0.203906593810889,1
348,35,53,0.26284465116875,1
348,36,53,0.272746640319147,1
348,37,53,0.276511304048632,1
348,38,53,0.322388439865766,1
348,39,53,0.287244151113587,1
348,40,53,0.249890757788583,1
348,41,53,0.227422145728074,1
348,42,53,0.211089186773467,1
349,23,53,0.212470872276682,1
349,24,53,0.224350880330174,1
349,25,53,0.208048187921853,1
349,26,53,0.173092458575344,1
349,27,53,0.151784727552563,1
349,28,53,0.183000100621545,1
349,29,53,0.200358930619089,1
349,30,53,0.148514574437285,1
349,31,53,0.128622599391805,1
349,32,53,0.160193009647891,1
349,33,53,0.174359190087007,1
349,34,53,0.196785746958106,1
349,35,53,0.266218652690698,1
349,36,53,0.271050064965905,1
349,37,53,0.240931247691145,1
349,38,53,0.274373378855475,1
349,39,53,0.274142552276803,1
349,40,53,0.242081729755967,1
349,41,53,0.205924135877149,1
349,42,53,0.185009811071743,1
349,43,53,0.144752430957179,1
350,22,53,0.14888421493855,1
350,23,53,0.18929415257863,1
350,24,53,0.238078961344462,1
350,25,53,0.242504236609868,1
350,26,53,0.197309087340915,1
350,27,53,0.145535745662651,1
350,28,53,0.145723610233211,1
350,29,53,0.152171550501699,1
350,30,53,0.121390944004393,1
350,33,53,0.118299139751738,1
350,34,53,0.132817530930055,1
350,35,53,0.16557095095557,1
350,36,53,0.174150857322888,1
350,37,53,0.167360351568664,1
350,38,53,0.188583430476777,1
350,39,53,0.188900451939598,1
350,40,53,0.166209115784402,1
350,41,53,0.136172077068943,1
350,42,53,0.118426753874518,1
351,22,53,0.123714873023241,1
351,23,53,0.147443268244321,1
351,24,53,0.192504067022994,1
351,25,53,0.203789484652812,1
351,26,53,0.173085686877245,1
351,27,53,0.122069326831498,1
351,36,53,0.116137872809656,1
351,37,53,0.149969111635176,1
351,38,53,0.197433745470264,1
351,39,53,0.180483466740104,1
351,40,53,0.13471383015818,1
352,23,53,0.114389184823218,1
352,24,53,0.124665207245995,1
352,25,53,0.119684746951417,1
352,37,53,0.127295205242043,1
352,38,53,0.18115567848929,1
352,39,53,0.16736722925856,1
352,40,53,0.126235263725019,1
352,48,53,0.117400623740523,1
352,49,53,0.118006307972213,1
353,41,53,0.119539785504637,1
353,42,53,0.11667095266086,1
353,49,53,0.120046308522428,1
354,20,53,0.11604150271306,1
355,19,53,0.12639375679113,1
355,20,53,0.123007189352884,1
356,19,53,0.116403535358722,1
361,19,53,0.160568538582286,1
362,19,53,0.153824492565453,1
370,43,53,0.113887761188518,1
373,34,53,0.113858719436323,1
373,35,53,0.143118225887644,1
373,36,53,0.159352070735816,1
373,37,53,0.163628133105723,1
373,38,53,0.13895853073324,1
374,36,53,0.119326294473098,1
374,37,53,0.131178308915493,1
374,38,53,0.142304868396346,1
374,39,53,0.147101256271299,1
375,38,53,0.143439463468585,1
375,39,53,0.174670546877157,1
375,40,53,0.131769401609888,1
376,38,53,0.131725556336807,1
376,39,53,0.157084517575748,1
377,32,53,0.121602432968668,1
378,31,53,0.132467039613327,1
378,32,53,0.132397355895674,1
379,30,53,0.121945257545462,1
379,31,53,0.180426549145475,1
379,32,53,0.164003603155786,1
380,30,53,0.139323107182014,1
380,31,53,0.234249006668439,1
380,32,53,0.227793046354028,1
347,26,54,0.125078528144214,1
347,27,54,0.126714099330235,1
347,28,54,0.152972424514762,1
347,29,54,0.169841077784883,1
347,30,54,0.133478907962283,1
347,32,54,0.118694288945319,1
347,33,54,0.143773961800933,1
347,34,54,0.147192185455683,1
347,35,54,0.169004990941706,1
347,36,54,0.203318362894995,1
347,37,54,0.214577329683196,1
347,38,54,0.213407627772639,1
348,24,54,0.187326509094709,1
348,25,54,0.169597437975721,1
348,26,54,0.150153619798853,1
348,27,54,0.151105273030628,1
348,28,54,0.196419816169713,1
348,29,54,0.225606765348013,1
348,30,54,0.165303298116107,1
348,31,54,0.126960365380573,1
348,32,54,0.154949854574545,1
348,33,54,0.210299712766943,1
348,34,54,0.212943289489788,1
348,35,54,0.244299737639684,1
348,36,54,0.272902165614961,1
348,37,54,0.274605807087959,1
348,38,54,0.302130180725905,1
348,39,54,0.270054448692386,1
348,40,54,0.221499277041734,1
348,41,54,0.192304166495117,1
349,23,54,0.228366509079634,1
349,24,54,0.217699800895588,1
349,25,54,0.207239446962129,1
349,26,54,0.180100023751584,1
349,27,54,0.16134995721229,1
349,28,54,0.18920626182574,1
349,29,54,0.219928643496263,1
349,30,54,0.177844435887635,1
349,31,54,0.142195072672215,1
349,32,54,0.159299510581703,1
349,33,54,0.19908554517799,1
349,34,54,0.204066193902429,1
349,35,54,0.241822167623623,1
349,36,54,0.252324635630824,1
349,37,54,0.224247408783225,1
349,38,54,0.255882191390282,1
349,39,54,0.270077366474126,1
349,40,54,0.247416956369725,1
349,41,54,0.210265135887607,1
349,42,54,0.167015371825345,1
350,22,54,0.149754619570005,1
350,23,54,0.178234085284674,1
350,24,54,0.211920704192536,1
350,25,54,0.235664562439013,1
350,26,54,0.215385246262282,1
350,27,54,0.168426216849417,1
350,28,54,0.159068448465705,1
350,29,54,0.170677023305665,1
350,30,54,0.149427611324597,1
350,31,54,0.12242210286028,1
350,33,54,0.120685439054293,1
350,34,54,0.132534203081601,1
350,35,54,0.163160191101796,1
350,36,54,0.177369545532615,1
350,37,54,0.163089176598255,1
350,38,54,0.18181613692595,1
350,39,54,0.193233043267547,1
350,40,54,0.182373276914921,1
350,41,54,0.153913054599719,1
350,42,54,0.124179741265075,1
351,22,54,0.133998809500144,1
351,23,54,0.149715814795682,1
351,24,54,0.186827664593718,1
351,25,54,0.217773123664916,1
351,26,54,0.209549573493722,1
351,27,54,0.15324680194486,1
351,28,54,0.118371649917293,1
351,36,54,0.12226244388441,1
351,37,54,0.153422029937925,1
351,38,54,0.209748037243916,1
351,39,54,0.195939037381564,1
351,40,54,0.146431988738678,1
352,22,54,0.139853101494258,1
352,23,54,0.138410506038753,1
352,24,54,0.140813175185408,1
352,25,54,0.146269844844027,1
352,26,54,0.140719195792663,1
352,37,54,0.14243190545268,1
352,38,54,0.213714156047623,1
352,39,54,0.192237780300016,1
352,40,54,0.128178246450994,1
353,38,54,0.126844492793453,1
353,39,54,0.114946136382329,1
353,42,54,0.114747613747805,1
353,49,54,0.117867611818283,1
353,50,54,0.11636633223821,1
355,20,54,0.118176789888175,1
361,19,54,0.142226940872312,1
362,19,54,0.143296998717452,1
370,43,54,0.116165265800574,1
371,47,54,0.115413301113083,1
372,47,54,0.11699436896206,1
373,34,54,0.116911777798987,1
373,35,54,0.144295653422466,1
373,36,54,0.149985823008398,1
373,37,54,0.155547283222987,1
373,38,54,0.13516668599643,1
373,39,54,0.114325307100631,1
373,47,54,0.144199436425131,1
373,48,54,0.152891435005501,1
374,36,54,0.116036662421028,1
374,37,54,0.125939275745337,1
374,38,54,0.129106557933844,1
374,39,54,0.134003296486188,1
375,39,54,0.132892502460658,1
376,38,54,0.116411991148696,1
376,39,54,0.133914675567591,1
377,31,54,0.117778496271303,1
377,32,54,0.127322527571764,1
377,33,54,0.12482655031374,1
378,31,54,0.128814974502142,1
378,32,54,0.127406190429666,1
379,31,54,0.163541078510338,1
379,32,54,0.159641016149475,1
380,30,54,0.130202124471301,1
380,31,54,0.213930261543472,1
380,32,54,0.227108245134812,1
380,33,54,0.133015488274999,1
381,30,54,0.122949388493286,1
381,31,54,0.159767016841578,1
381,32,54,0.176106123320372,1
347,27,55,0.129500140804213,1
347,28,55,0.146846605092185,1
347,29,55,0.163222066757119,1
347,30,55,0.149682333164908,1
347,31,55,0.125187782132497,1
347,32,55,0.123979746522268,1
347,33,55,0.148465535566183,1
347,34,55,0.143021537815659,1
347,35,55,0.163176784706354,1
347,36,55,0.220129486173441,1
347,37,55,0.226317240135673,1
348,25,55,0.181473123919296,1
348,26,55,0.155814488541533,1
348,27,55,0.149213908309465,1
348,28,55,0.176273166391386,1
348,29,55,0.203784632583913,1
348,30,55,0.178122487700005,1
348,31,55,0.138463172184662,1
348,32,55,0.154390630080246,1
348,33,55,0.22842409795564,1
348,34,55,0.214738013246431,1
348,35,55,0.214725082247279,1
348,36,55,0.264585413324196,1
348,37,55,0.266929433676882,1
348,38,55,0.256939965963914,1
348,39,55,0.2306832071026,1
348,40,55,0.192026573980531,1
349,24,55,0.214570192902243,1
349,25,55,0.204827120785142,1
349,26,55,0.181402886688928,1
349,27,55,0.168860441685245,1
349,28,55,0.186518521854425,1
349,29,55,0.226120990436337,1
349,30,55,0.223608678664812,1
349,31,55,0.169885017272894,1
349,32,55,0.153000170811668,1
349,33,55,0.212411422655808,1
349,34,55,0.212044526164381,1
349,35,55,0.20432544983625,1
349,36,55,0.219003947511355,1
349,37,55,0.204988440299155,1
349,38,55,0.221695573848536,1
349,39,55,0.243581066153107,1
349,40,55,0.233207601938906,1
349,41,55,0.197657717912774,1
350,22,55,0.150218204133416,1
350,23,55,0.171834147523057,1
350,24,55,0.194631899441767,1
350,25,55,0.21611590659871,1
350,26,55,0.208477148498464,1
350,27,55,0.184387403689965,1
350,28,55,0.16631879373987,1
350,29,55,0.183806533315483,1
350,30,55,0.194233876692819,1
350,31,55,0.154438632587117,1
350,32,55,0.115820180065459,1
350,33,55,0.128195240469006,1
350,34,55,0.144427365894704,1
350,35,55,0.160860228005784,1
350,36,55,0.174778846939273,1
350,37,55,0.160092034796589,1
350,38,55,0.179460410368202,1
350,39,55,0.21157505316784,1
350,40,55,0.21206351047279,1
350,41,55,0.176366003428104,1
350,42,55,0.133185899529764,1
351,22,55,0.148560998844077,1
351,23,55,0.161423621510738,1
351,24,55,0.181168020645129,1
351,25,55,0.211147788459971,1
351,26,55,0.215828268417205,1
351,27,55,0.180093970442327,1
351,28,55,0.133807364762241,1
351,29,55,0.1210682931995,1
351,30,55,0.121797139898525,1
351,36,55,0.131890738662953,1
351,37,55,0.15280301429363,1
351,38,55,0.206706991284836,1
351,39,55,0.215198017642499,1
351,40,55,0.178447623423678,1
351,41,55,0.13151621076219,1
352,21,55,0.118887582651225,1
352,22,55,0.176288711854848,1
352,23,55,0.176137237801027,1
352,24,55,0.162539832894747,1
352,25,55,0.168710109987452,1
352,26,55,0.165645345419727,1
352,27,55,0.138181245783293,1
352,37,55,0.154772718729146,1
352,38,55,0.218277950813965,1
352,39,55,0.194323675298042,1
352,40,55,0.132300514724427,1
353,22,55,0.123612873584574,1
353,23,55,0.123257353545953,1
353,24,55,0.120454718467417,1
353,25,55,0.119251864678342,1
353,37,55,0.129860018283349,1
353,38,55,0.147233322049525,1
353,39,55,0.11849861631243,1
353,49,55,0.118251784972511,1
354,51,55,0.12052603916948,1
371,47,55,0.118603136000476,1
372,43,55,0.132848409873386,1
372,44,55,0.137798803828405,1
372,47,55,0.123648074637821,1
372,48,55,0.118995706060347,1
373,35,55,0.123963470893098,1
373,36,55,0.119957864256825,1
373,37,55,0.125630757179955,1
373,38,55,0.119926596676908,1
373,39,55,0.115389252752183,1
373,47,55,0.159968142163546,1
373,48,55,0.172945071094115,1
373,49,55,0.128456769338015,1
374,38,55,0.114647828359994,1
374,39,55,0.123036537303601,1
374,40,55,0.117002436115447,1
374,48,55,0.206702822274181,1
376,33,55,0.11645006575731,1
377,29,55,0.121940852997481,1
377,30,55,0.12072142915758,1
377,31,55,0.122734707998254,1
377,32,55,0.125977409238283,1
377,33,55,0.136013760655826,1
377,34,55,0.124029091591892,1
379,31,55,0.121033386567909,1
379,32,55,0.129033352933179,1
380,31,55,0.152254542078225,1
380,32,55,0.176200844655691,1
380,33,55,0.131633355250867,1
381,30,55,0.119137676183097,1
381,31,55,0.143391519846045,1
381,32,55,0.159748503607819,1
347,28,56,0.145246623595997,1
347,29,56,0.161628126793322,1
347,30,56,0.175800125004369,1
347,31,56,0.151189736715436,1
347,32,56,0.133707084746047,1
347,33,56,0.144994056922211,1
347,34,56,0.140521591753706,1
347,35,56,0.15355797030515,1
348,26,56,0.156465254617262,1
348,27,56,0.149583007074882,1
348,28,56,0.164892780112057,1
348,29,56,0.186172317317015,1
348,30,56,0.194175263229449,1
348,31,56,0.157426093804718,1
348,32,56,0.154889698341695,1
348,33,56,0.215049699788836,1
348,34,56,0.213613416733646,1
348,35,56,0.193482394856845,1
348,36,56,0.248596103327021,1
348,37,56,0.269484848778913,1
348,38,56,0.220060827043152,1
349,24,56,0.196806309366594,1
349,25,56,0.189484348968709,1
349,26,56,0.173368155014462,1
349,27,56,0.171597891809039,1
349,28,56,0.183529129230757,1
349,29,56,0.226915811140143,1
349,30,56,0.271390039541064,1
349,31,56,0.202274814775803,1
349,32,56,0.149649228393855,1
349,33,56,0.2019832666747,1
349,34,56,0.225721754670163,1
349,35,56,0.188486754181659,1
349,36,56,0.194989574646913,1
349,37,56,0.202336384232604,1
349,38,56,0.195610875003262,1
349,39,56,0.20745098303387,1
349,40,56,0.203565629978965,1
349,41,56,0.170552212077054,1
350,23,56,0.15743219422144,1
350,24,56,0.171432909689619,1
350,25,56,0.189113919417405,1
350,26,56,0.188414090916842,1
350,27,56,0.189523141966166,1
350,28,56,0.176118206385153,1
350,29,56,0.19571460564127,1
350,30,56,0.239034324289108,1
350,31,56,0.181734440804712,1
350,32,56,0.11758116310027,1
350,33,56,0.12669290097097,1
350,34,56,0.156410150660037,1
350,35,56,0.156259512763721,1
350,36,56,0.162655964572925,1
350,37,56,0.157115007882492,1
350,38,56,0.178220706764604,1
350,39,56,0.22917414301393,1
350,40,56,0.238772524552175,1
350,41,56,0.186309282271605,1
350,42,56,0.136017917889616,1
351,22,56,0.148927895335504,1
351,23,56,0.164342977110765,1
351,24,56,0.169615126828841,1
351,25,56,0.194206778123557,1
351,26,56,0.200345340115426,1
351,27,56,0.198278264549682,1
351,28,56,0.161105457691891,1
351,29,56,0.137695426496385,1
351,30,56,0.140389278661289,1
351,31,56,0.115251298540827,1
351,35,56,0.116205177600325,1
351,36,56,0.137564043776402,1
351,37,56,0.151222193758845,1
351,38,56,0.188831404172723,1
351,39,56,0.223843344501885,1
351,40,56,0.213191192524535,1
351,41,56,0.154660650069827,1
352,21,56,0.12724236244314,1
352,22,56,0.185400579271076,1
352,23,56,0.198464009284316,1
352,24,56,0.176550747129106,1
352,25,56,0.183557558585906,1
352,26,56,0.179097741771763,1
352,27,56,0.174144438930777,1
352,28,56,0.13765716345791,1
352,36,56,0.122332386693121,1
352,37,56,0.16830813021144,1
352,38,56,0.197423570257816,1
352,39,56,0.172700701119245,1
352,40,56,0.131608988914577,1
353,22,56,0.130633864388349,1
353,23,56,0.141727271990683,1
353,24,56,0.139446293203081,1
353,25,56,0.143625373079346,1
353,26,56,0.131732528241632,1
353,27,56,0.120857051549416,1
353,37,56,0.159513425580428,1
353,38,56,0.1589906504872,1
355,51,56,0.132436066455066,1
356,52,56,0.122342550128702,1
371,44,56,0.117849628543506,1
372,43,56,0.143988265436245,1
372,44,56,0.153585963916247,1
372,45,56,0.121558740794848,1
372,46,56,0.116018738030582,1
372,47,56,0.135516835784036,1
372,48,56,0.130275247033902,1
372,49,56,0.115759105237041,1
373,19,56,0.114316262467344,1
373,40,56,0.116794244673724,1
373,43,56,0.120016171521672,1
373,44,56,0.115918587559917,1
373,46,56,0.121167407305934,1
373,47,56,0.164713489100133,1
373,48,56,0.174856150289395,1
373,49,56,0.143532465381431,1
374,40,56,0.12183971327005,1
374,47,56,0.167018398479974,1
374,48,56,0.190558410948378,1
376,29,56,0.122245108337277,1
376,30,56,0.120490013735595,1
377,29,56,0.157575224262153,1
377,30,56,0.138225385478031,1
377,31,56,0.11624035509984,1
377,32,56,0.117352844994111,1
377,33,56,0.131932051909788,1
377,34,56,0.12311230966111,1
378,34,56,0.119377523841324,1
380,32,56,0.115920224544327,1
380,33,56,0.114166060315079,1
381,31,56,0.118677683563895,1
381,32,56,0.128967944217978,1
348,28,57,0.173135444137189,1
348,29,57,0.182952557412459,1
348,30,57,0.209621011964448,1
348,31,57,0.184291799089676,1
348,32,57,0.16193338316675,1
348,33,57,0.181191668592577,1
348,34,57,0.204393826321748,1
348,35,57,0.193473939066871,1
349,26,57,0.17087274304602,1
349,27,57,0.176947333100371,1
349,28,57,0.188450210565658,1
349,29,57,0.21802736265371,1
349,30,57,0.281070623605796,1
349,31,57,0.219047710346373,1
349,32,57,0.151912836303726,1
349,33,57,0.173189617721979,1
349,34,57,0.22733005063393,1
349,35,57,0.209203498501841,1
349,36,57,0.202222125076161,1
349,37,57,0.22645399310667,1
349,38,57,0.201357137803185,1
350,24,57,0.163563937407746,1
350,25,57,0.175052788625318,1
350,26,57,0.176279113708847,1
350,27,57,0.189690149706582,1
350,28,57,0.194303678179134,1
350,29,57,0.201958087734639,1
350,30,57,0.253623364888112,1
350,31,57,0.194475867740704,1
350,32,57,0.123711999467874,1
350,33,57,0.120154137509894,1
350,34,57,0.158300396578905,1
350,35,57,0.162089379537214,1
350,36,57,0.161761440919372,1
350,37,57,0.173501846000232,1
350,38,57,0.190473711726245,1
350,39,57,0.229939474444624,1
350,40,57,0.23521817210034,1
350,41,57,0.177115035675896,1
351,23,57,0.164540475157925,1
351,24,57,0.168605743398666,1
351,25,57,0.1828368379246,1
351,26,57,0.179662477839471,1
351,27,57,0.203808139208966,1
351,28,57,0.199461368534041,1
351,29,57,0.160204150563372,1
351,30,57,0.157346941486593,1
351,31,57,0.129554467488265,1
351,35,57,0.116549756930191,1
351,36,57,0.142562558006955,1
351,37,57,0.158523097119859,1
351,38,57,0.175372094800193,1
351,39,57,0.21693873269048,1
351,40,57,0.22880580974482,1
351,41,57,0.170336589432722,1
351,42,57,0.124445592244001,1
352,22,57,0.164913142313819,1
352,23,57,0.193738859673362,1
352,24,57,0.181183236356336,1
352,25,57,0.187791813080594,1
352,26,57,0.179489181252473,1
352,27,57,0.204177084875121,1
352,28,57,0.187549091867,1
352,29,57,0.13134546975517,1
352,36,57,0.144031121452561,1
352,37,57,0.183976567710527,1
352,38,57,0.177545821666777,1
352,39,57,0.154309228380665,1
352,40,57,0.136650194285318,1
353,22,57,0.126429994208608,1
353,23,57,0.148766611152089,1
353,24,57,0.150756948657291,1
353,25,57,0.163377639160398,1
353,26,57,0.153878666150243,1
353,27,57,0.152470883111399,1
353,28,57,0.127423290439474,1
353,36,57,0.124862552193894,1
353,37,57,0.174029696922818,1
353,38,57,0.160296457641109,1
354,24,57,0.117977784402134,1
354,25,57,0.129781866998856,1
354,26,57,0.12560338774277,1
354,27,57,0.11473947593322,1
357,19,57,0.125771632054143,1
358,18,57,0.121914331494666,1
358,19,57,0.117018617529686,1
362,46,57,0.122401469790595,1
362,47,57,0.115720076702259,1
371,44,57,0.121314853671495,1
371,45,57,0.128757114758213,1
372,43,57,0.13372615149252,1
372,44,57,0.150437030085371,1
372,45,57,0.138494004020528,1
372,46,57,0.128759576123261,1
372,47,57,0.143697494608315,1
372,48,57,0.142030938487166,1
372,49,57,0.126267167255714,1
372,50,57,0.11496593329451,1
373,19,57,0.133984076640454,1
373,40,57,0.124329083706103,1
373,43,57,0.119092982975645,1
373,44,57,0.11437170795369,1
373,46,57,0.121378342757496,1
373,47,57,0.154136402868317,1
373,48,57,0.164112527391813,1
373,49,57,0.150229498148158,1
373,50,57,0.126061896476823,1
374,19,57,0.136736589376193,1
374,40,57,0.123193511153964,1
374,47,57,0.133981945027661,1
374,48,57,0.156683951023688,1
374,49,57,0.146942986965647,1
376,29,57,0.118469386130375,1
376,30,57,0.114750039782254,1
377,29,57,0.159281951274111,1
377,30,57,0.135412940269901,1
377,33,57,0.114371625515627,1
377,38,57,0.120773694890037,1
378,33,57,0.11844037970878,1
378,34,57,0.126542404397048,1
379,34,57,0.117342834657791,1
379,35,57,0.115543294162848,1
349,28,58,0.186707257913088,1
349,29,58,0.204115491864588,1
349,30,58,0.25772421104182,1
349,31,58,0.229554276703031,1
349,32,58,0.161962542687607,1
349,33,58,0.147364327909788,1
349,34,58,0.20531649668566,1
349,35,58,0.239627737026157,1
350,26,58,0.169961778887169,1
350,27,58,0.181062770791374,1
350,28,58,0.198440055138346,1
350,29,58,0.201034216130369,1
350,30,58,0.238596248418014,1
350,31,58,0.209457878813031,1
350,32,58,0.145715672625353,1
350,33,58,0.119184230135418,1
350,34,58,0.144304274088567,1
350,35,58,0.16911360897921,1
350,36,58,0.170737685943764,1
350,37,58,0.201582335039786,1
350,38,58,0.213876747463192,1
351,24,58,0.168372679215404,1
351,25,58,0.172708120544988,1
351,26,58,0.168923954324979,1
351,27,58,0.194581753545237,1
351,28,58,0.217978959733387,1
351,29,58,0.184136803752844,1
351,30,58,0.174171089979121,1
351,31,58,0.156800330016057,1
351,32,58,0.117635077594003,1
351,36,58,0.139722319394454,1
351,37,58,0.166587388728635,1
351,38,58,0.173778131282664,1
351,39,58,0.198988197601495,1
351,40,58,0.211765226004187,1
351,41,58,0.167724032975602,1
352,23,58,0.174720033269176,1
352,24,58,0.17963524972468,1
352,25,58,0.183658427445412,1
352,26,58,0.177783832133867,1
352,27,58,0.20962028179874,1
352,28,58,0.221199061167065,1
352,29,58,0.16524303589146,1
352,30,58,0.124865343311197,1
352,36,58,0.150264546102145,1
352,37,58,0.184174159972617,1
352,38,58,0.164171411723107,1
352,39,58,0.151339585561713,1
352,40,58,0.144846775432779,1
353,22,58,0.130308975978867,1
353,23,58,0.154654243454583,1
353,24,58,0.161015953508324,1
353,25,58,0.173328066561718,1
353,26,58,0.169531840830659,1
353,27,58,0.16831968331724,1
353,28,58,0.149402361723338,1
353,29,58,0.114251937223838,1
353,36,58,0.12299545959409,1
353,37,58,0.159350115776017,1
353,38,58,0.145714165186472,1
354,23,58,0.128420449482473,1
354,24,58,0.134406748370482,1
354,25,58,0.148419641118373,1
354,26,58,0.151281089867005,1
354,27,58,0.135646899494999,1
355,25,58,0.124634822931047,1
355,26,58,0.134522279428481,1
355,27,58,0.132112826806861,1
358,19,58,0.131817898745142,1
361,53,58,0.116767275649991,1
362,46,58,0.119718216805324,1
362,47,58,0.121518487465975,1
363,46,58,0.120107265582184,1
363,47,58,0.121109865537394,1
371,44,58,0.115182768956067,1
371,45,58,0.133009953147857,1
371,51,58,0.116011613026495,1
371,52,58,0.117714347680791,1
372,44,58,0.134284009870333,1
372,45,58,0.146729531264706,1
372,46,58,0.137664276685131,1
372,47,58,0.14230186529545,1
372,48,58,0.149418448922648,1
372,49,58,0.135784406185436,1
372,50,58,0.131127727274911,1
372,51,58,0.135405473736693,1
373,19,58,0.135228090577103,1
373,40,58,0.122384040028532,1
373,41,58,0.122255542640782,1
373,46,58,0.120121338937363,1
373,47,58,0.140465781184506,1
373,48,58,0.1586046872493,1
373,49,58,0.155376424447305,1
373,50,58,0.142687157251973,1
374,48,58,0.133722524217712,1
374,49,58,0.141041646390829,1
377,29,58,0.127453686531288,1
378,34,58,0.119084397640142,1
379,34,58,0.120544481742042,1
379,35,58,0.121528627347824,1
350,29,59,0.189345264178193,1
350,30,59,0.201720195036211,1
350,31,59,0.218331017373327,1
350,32,59,0.198730990842403,1
351,26,59,0.168695883533011,1
351,27,59,0.182455667871267,1
351,28,59,0.215661060470063,1
351,29,59,0.206502073811933,1
351,30,59,0.188149629608135,1
351,37,59,0.187467348638297,1
351,38,59,0.192481113910655,1
352,25,59,0.172502602451906,1
352,26,59,0.177149377017907,1
352,27,59,0.197604486477284,1
352,28,59,0.22910734462851,1
352,29,59,0.203091564004583,1
352,30,59,0.158605664729199,1
352,36,59,0.144788727258989,1
352,37,59,0.179857832496972,1
352,38,59,0.170455441567005,1
353,23,59,0.1465670576178,1
353,24,59,0.158297205048149,1
353,25,59,0.171217475475147,1
353,26,59,0.17582590456461,1
353,27,59,0.172839526818704,1
353,28,59,0.163700136866029,1
353,29,59,0.135641175937997,1
353,37,59,0.135570550071043,1
353,38,59,0.134181150720429,1
354,25,59,0.157013856378195,1
354,26,59,0.172315503377652,1
354,27,59,0.162959737061205,1
354,28,59,0.128808226357776,1
355,25,59,0.134012812194125,1
355,26,59,0.162631657120967,1
355,27,59,0.165632261321314,1
355,28,59,0.129426123199776,1
356,26,59,0.127941449001129,1
356,27,59,0.129595651189572,1
361,52,59,0.135024044592303,1
361,53,59,0.149237403157651,1
362,53,59,0.115283543600644,1
362,54,59,0.133586654511684,1
363,46,59,0.11484477289444,1
363,47,59,0.118454853477412,1
366,54,59,0.141418282350651,1
367,54,59,0.152025175830969,1
370,52,59,0.128666986400734,1
371,45,59,0.120906361288442,1
371,51,59,0.132314623410206,1
371,52,59,0.151547105722059,1
372,44,59,0.11893903577991,1
372,45,59,0.141671284768489,1
372,46,59,0.137327199219071,1
372,47,59,0.135456738435518,1
372,48,59,0.152553650927466,1
372,49,59,0.147417135378093,1
372,50,59,0.142691538246221,1
372,51,59,0.151111726753338,1
373,41,59,0.115650840505523,1
373,44,59,0.123337765988768,1
373,45,59,0.130324627434125,1
373,46,59,0.123269872354786,1
373,47,59,0.132748883576632,1
373,48,59,0.161939895773791,1
373,49,59,0.163585335973738,1
374,44,59,0.12672041173055,1
374,48,59,0.124460513533551,1
353,28,60,0.174432536410066,1
354,26,60,0.175147262646447,1
354,27,60,0.187613122688849,1
355,26,60,0.170650454695385,1
355,27,60,0.190803122452369,1
356,27,60,0.141486187761499,1
358,26,60,0.115680353332368,1
358,27,60,0.113763597687551,1
360,52,60,0.12052729929417,1
361,52,60,0.145983796539467,1
361,53,60,0.170424315309483,1
362,49,60,0.115361082488092,1
362,50,60,0.116348502062695,1
362,51,60,0.115631985742643,1
362,52,60,0.123890324776765,1
362,53,60,0.132140961740353,1
366,53,60,0.12568211609371,1
366,54,60,0.176609431253674,1
367,53,60,0.141875978480933,1
367,54,60,0.196539928428686,1
367,55,60,0.177597439671589,1
368,50,60,0.120688006411138,1
368,54,60,0.119064035438381,1
369,52,60,0.124785425496765,1
370,51,60,0.12460780679985,1
370,52,60,0.181574605175848,1
371,49,60,0.11384236136909,1
371,51,60,0.138601420817674,1
372,45,60,0.1265120554127,1
372,46,60,0.123165753080192,1
372,47,60,0.127498250193211,1
372,48,60,0.157315803452205,1
372,49,60,0.163901438840991,1
372,50,60,0.148132179589862,1
373,44,60,0.155309378747693,1
373,45,60,0.151573839208466,1
373,46,60,0.119111990837786,1
373,47,60,0.123156861546167,1
373,48,60,0.162254938723081,1
373,49,60,0.168818834016753,1
374,43,60,0.118558348578094,1
374,44,60,0.174429733515897,1
374,45,60,0.137493488570646,1
361,48,61,0.12320961013014,1
361,49,61,0.117679075966346,1
361,50,61,0.115206393349783,1
361,51,61,0.119273180806271,1
361,52,61,0.140580923605918,1
362,49,61,0.121256817274571,1
362,50,61,0.126716018959436,1
362,51,61,0.130277366869829,1
362,52,61,0.134108664108606,1
362,53,61,0.14999450255883,1
366,52,61,0.125069436403462,1
366,53,61,0.147265849754132,1
366,54,61,0.185448734877208,1
366,55,61,0.177044751338064,1
367,52,61,0.12636391421203,1
367,53,61,0.163822934250509,1
367,54,61,0.20837494885307,1
368,50,61,0.122891882055344,1
368,51,61,0.115069016204874,1
368,52,61,0.121376046268575,1
368,53,61,0.138851714556273,1
369,51,61,0.114299727747117,1
369,52,61,0.152010949376528,1
369,53,61,0.14030897221027,1
370,42,61,0.130103198794727,1
370,51,61,0.131704581738,1
370,52,61,0.207741636093137,1
371,41,61,0.119490864402198,1
371,42,61,0.158061137763991,1
371,43,61,0.125974818327706,1
371,48,61,0.121503118655508,1
371,49,61,0.116651202856144,1
371,51,61,0.129709215510905,1
372,42,61,0.115378206051632,1
372,45,61,0.113923657076874,1
372,47,61,0.135145852720018,1
372,48,61,0.184134754578115,1
372,49,61,0.180769185292409,1
372,50,61,0.140198634750291,1
373,44,61,0.176005478221324,1
373,45,61,0.163917196288045,1
373,46,61,0.114483788389875,1
373,47,61,0.123857290666909,1
373,48,61,0.17066145428847,1
373,49,61,0.16714920413351,1
374,43,61,0.122157983080694,1
374,44,61,0.187954910901412,1
374,45,61,0.148700448717447,1
360,48,62,0.1162838588438,1
361,47,62,0.123907919414955,1
361,48,62,0.140427447484834,1
361,49,62,0.127419415850475,1
361,50,62,0.119079580901842,1
361,51,62,0.121806066763149,1
362,48,62,0.122693206321558,1
362,49,62,0.123381670146181,1
362,50,62,0.127621919065795,1
362,51,62,0.137610114877206,1
362,52,62,0.144844584935654,1
365,48,62,0.120859512914464,1
365,52,62,0.12238514705396,1
365,53,62,0.11894548950262,1
366,48,62,0.119598540290402,1
366,51,62,0.115351731656282,1
366,52,62,0.148126232272401,1
366,53,62,0.15627147805984,1
366,54,62,0.167029327411862,1
367,51,62,0.116722500004475,1
367,52,62,0.141768243708398,1
367,53,62,0.172268760995471,1
368,51,62,0.11927116696214,1
368,52,62,0.146274426045001,1
368,53,62,0.176602471125715,1
369,51,62,0.12167294106696,1
369,52,62,0.175507199009914,1
370,41,62,0.124969062172338,1
370,42,62,0.173986393385584,1
370,43,62,0.142782738298529,1
370,51,62,0.128033108351221,1
371,41,62,0.150135165449425,1
371,42,62,0.204310092802648,1
371,43,62,0.150815255922139,1
371,48,62,0.1321983268559,1
371,49,62,0.117257735022205,1
372,42,62,0.122321752182889,1
372,47,62,0.143544171586492,1
372,48,62,0.210869383341613,1
372,49,62,0.184964835219501,1
373,44,62,0.16453514023751,1
373,45,62,0.158641713716818,1
361,28,63,0.115972419615586,1
361,29,63,0.115764781686577,1
366,53,63,0.153897367813862,1
367,52,63,0.153088803507132,1
368,52,63,0.16753305931235,1
371,42,63,0.217724697190859,1
