x,y,z,signal,mito.p
579,809,35,0.191894390433642,1
578,809,36,0.185650460819355,1
579,808,36,0.176374435664346,1
579,809,36,0.26481513287744,1
579,810,36,0.187075909157588,1
580,809,36,0.207275766817671,1
578,808,37,0.142473725104765,1
578,809,37,0.238376845399612,1
578,810,37,0.165691675611589,1
579,808,37,0.19916937291202,1
579,809,37,0.303469775709111,1
579,810,37,0.194564606427964,1
580,809,37,0.201932272843799,1
577,809,38,0.145214543412308,1
578,808,38,0.173719447158096,1
578,809,38,0.260848448784152,1
578,810,38,0.170872907922147,1
579,807,38,0.138055457074783,1
579,808,38,0.223219759433482,1
579,809,38,0.303852052787872,1
579,810,38,0.186434753004726,1
580,808,38,0.17996105672973,1
580,809,38,0.192186562708657,1
581,806,38,0.220250316821256,1
585,808,38,0.127201967791872,1
585,809,38,0.123474448298568,1
585,814,38,0.132846996649434,1
577,809,39,0.188374202670824,1
578,808,39,0.209273735732209,1
578,809,39,0.249767595321249,1
578,810,39,0.158219842813695,1
579,807,39,0.179438858702949,1
579,808,39,0.245377132472504,1
579,809,39,0.272544784831472,1
579,810,39,0.167288701114346,1
580,806,39,0.238899832476433,1
580,807,39,0.202340788780585,1
580,808,39,0.195297480815249,1
580,809,39,0.188351331996549,1
581,805,39,0.194536271287746,1
581,806,39,0.249374224434473,1
581,807,39,0.209827531091162,1
582,806,39,0.188431438240841,1
583,809,39,0.221825237146045,1
583,810,39,0.200851250736172,1
584,807,39,0.184950726533722,1
584,808,39,0.177024589343029,1
584,809,39,0.167020412324104,1
584,810,39,0.155695553969185,1
585,807,39,0.133569318964552,1
585,808,39,0.119655351893235,1
585,809,39,0.117079609920041,1
585,810,39,0.116143219506937,1
585,814,39,0.141106972667966,1
585,815,39,0.165688813833088,1
586,815,39,0.120674015494022,1
577,807,40,0.193742463394438,1
577,808,40,0.245135212085816,1
578,806,40,0.168275072547852,1
578,807,40,0.213440249692176,1
578,808,40,0.25190434282778,1
578,809,40,0.223294613195423,1
579,806,40,0.216515330794743,1
579,807,40,0.233817219643926,1
579,808,40,0.259134867636031,1
579,809,40,0.229076583453842,1
579,810,40,0.143315688604205,1
580,805,40,0.21339846537069,1
580,806,40,0.269363829701238,1
580,807,40,0.227685688441213,1
580,808,40,0.215692245611916,1
580,809,40,0.191648489466158,1
581,805,40,0.204083953416747,1
581,806,40,0.248897072921131,1
581,807,40,0.209476957336371,1
581,808,40,0.200048963499158,1
581,810,40,0.152293723712268,1
582,806,40,0.199691818252993,1
582,808,40,0.221805758209253,1
582,809,40,0.198105285938073,1
582,810,40,0.153609870954752,1
582,816,40,0.162169368012844,1
583,806,40,0.207092707208544,1
583,807,40,0.227325198565031,1
583,808,40,0.231499626579125,1
583,809,40,0.189412156778543,1
583,810,40,0.14054758329754,1
583,816,40,0.123375769936185,1
583,817,40,0.12049572551573,1
584,805,40,0.121610629667584,1
584,806,40,0.177197556177772,1
584,807,40,0.17977866840198,1
584,808,40,0.169779873410936,1
584,809,40,0.141469759033068,1
585,806,40,0.116580447443662,1
585,807,40,0.115560123304732,1
585,814,40,0.128241452892205,1
585,815,40,0.144761534474797,1
597,814,40,0.114550586775295,1
597,815,40,0.121401225208637,1
598,814,40,0.126660373266363,1
598,815,40,0.125931232145682,1
576,807,41,0.161743469421461,1
576,808,41,0.174819100268145,1
577,806,41,0.200763725066137,1
577,807,41,0.278579156887549,2
577,808,41,0.288963997554557,1
577,809,41,0.201727473139559,1
578,805,41,0.138159411473249,1
578,806,41,0.236745396116781,2
578,807,41,0.293788861892124,2
578,808,41,0.275133033836633,1
578,809,41,0.186525788180907,1
579,805,41,0.168861913793527,1
579,806,41,0.25420657885898,1
579,807,41,0.272919901575547,2
579,808,41,0.250813805012215,1
579,809,41,0.18560728682765,1
580,805,41,0.20530022105649,1
580,806,41,0.265121496276296,1
580,807,41,0.244741087479599,1
580,808,41,0.23526878907152,1
580,809,41,0.200798443267867,1
580,810,41,0.147161989570596,1
581,806,41,0.225328148246062,1
581,807,41,0.214221315016192,1
581,808,41,0.243553013657679,1
581,809,41,0.229578654816187,1
581,810,41,0.166025373117032,1
581,815,41,0.13731376181467,1
581,816,41,0.190670244070371,1
582,806,41,0.202047003074893,1
582,807,41,0.205955603663793,1
582,808,41,0.238866527498653,1
582,809,41,0.211581200692028,1
582,810,41,0.142377460999965,1
582,815,41,0.124003618230174,1
582,816,41,0.189777875583344,1
582,817,41,0.149495646280974,1
583,805,41,0.16018294042724,1
583,806,41,0.215804691130955,1
583,807,41,0.216678817252148,1
583,808,41,0.218676479968163,1
583,809,41,0.168672930420672,1
583,816,41,0.128886248096741,1
583,817,41,0.114113358838571,1
584,805,41,0.115401335816965,1
584,806,41,0.163395057145595,1
584,807,41,0.169375444046742,1
584,808,41,0.166795945253212,1
584,809,41,0.129284200184492,1
585,808,41,0.119157567310208,1
597,814,41,0.123377524689258,1
597,815,41,0.147554347646874,1
598,814,41,0.138062016789289,1
598,815,41,0.153470809717969,1
576,806,42,0.17257477108834,1
576,807,42,0.222352746539509,2
576,808,42,0.191371968646402,1
577,805,42,0.136385497439285,1
577,806,42,0.281816264116105,2
577,807,42,0.3786333163401,2
577,808,42,0.310652062473166,2
577,809,42,0.16926905183696,1
578,805,42,0.164799201132765,2
578,806,42,0.322175419908877,2
578,807,42,0.39451555106925,2
578,808,42,0.299449200675823,2
578,809,42,0.15647945751797,1
579,805,42,0.174541083786374,1
579,806,42,0.28498245105605,2
579,807,42,0.30727733078551,2
579,808,42,0.242470460557438,2
579,809,42,0.156482849255452,1
579,814,42,0.138475302356909,1
580,805,42,0.17671445734697,1
580,806,42,0.236545966663554,1
580,807,42,0.246722215475386,2
580,808,42,0.253376215572805,1
580,809,42,0.212598792597985,1
580,810,42,0.150348373836175,1
580,814,42,0.123807262539041,1
580,815,42,0.132856041282721,1
580,816,42,0.128837974721946,1
581,806,42,0.187262902240045,1
581,807,42,0.212412341251376,1
581,808,42,0.292552408703613,1
581,809,42,0.277118401504273,1
581,810,42,0.173362926085844,1
581,815,42,0.136922169234699,1
581,816,42,0.186759346992551,1
581,817,42,0.124909176807412,1
582,805,42,0.16969149980653,1
582,806,42,0.184253995348986,1
582,807,42,0.19160252435715,1
582,808,42,0.25535479976548,1
582,809,42,0.235273994446407,1
582,810,42,0.139876419689451,1
582,815,42,0.122212851500594,1
582,816,42,0.183379245053881,1
582,817,42,0.128951397720884,1
583,805,42,0.156076052741141,1
583,806,42,0.193743829510924,1
583,807,42,0.18714830155448,1
583,808,42,0.19737177560001,1
583,809,42,0.156072743441722,1
583,816,42,0.11584488793087,1
584,806,42,0.137724279818719,1
584,807,42,0.150308108730436,1
584,808,42,0.155132867076206,1
584,809,42,0.114973046521731,1
585,808,42,0.117104117578725,1
597,815,42,0.139670430521718,1
598,814,42,0.11984779766477,1
598,815,42,0.144783710313963,1
575,806,43,0.125836345934235,1
575,807,43,0.149557757473623,1
576,805,43,0.116582001990008,1
576,806,43,0.234269592630659,2
576,807,43,0.301800546239322,2
576,808,43,0.219799027306219,2
577,805,43,0.158522814475069,2
577,806,43,0.350605057702405,2
577,807,43,0.458806877199977,2
577,808,43,0.320590465694036,2
577,809,43,0.144872496108688,2
578,805,43,0.185944988467621,2
578,806,43,0.385387961536566,2
578,807,43,0.469260541873402,2
578,808,43,0.315954737828585,2
578,809,43,0.140707748678659,2
578,813,43,0.118020192897532,1
578,814,43,0.137577598949466,1
579,805,43,0.175363509464691,1
579,806,43,0.299571067687869,2
579,807,43,0.331896846145794,2
579,808,43,0.24537119693191,2
579,809,43,0.146153995810639,1
579,812,43,0.114774747647665,1
579,813,43,0.155989139468151,1
579,814,43,0.192472010393037,1
579,815,43,0.162607750082462,1
580,806,43,0.200070350288284,1
580,807,43,0.233752022912317,2
580,808,43,0.254455659580353,1
580,809,43,0.208575202686934,1
580,810,43,0.145114769801364,1
580,813,43,0.118209835774898,1
580,814,43,0.141112036720457,1
580,815,43,0.137877543956211,1
580,816,43,0.128613236783129,1
581,805,43,0.145119610093396,1
581,806,43,0.147063817613462,1
581,807,43,0.191410537883399,1
581,808,43,0.295278423490269,1
581,809,43,0.277814037440448,1
581,810,43,0.160983578902978,1
581,815,43,0.123296511626264,1
581,816,43,0.160734992809988,1
581,817,43,0.115823065397692,1
582,804,43,0.142298555996031,1
582,805,43,0.160837298447178,1
582,806,43,0.151814016618948,1
582,807,43,0.167312195962532,1
582,808,43,0.247796972290164,1
582,809,43,0.233934776322921,1
582,810,43,0.131337049295795,1
582,816,43,0.148871955220774,1
583,805,43,0.140600355435245,1
583,806,43,0.153676056943127,1
583,807,43,0.154613789918984,1
583,808,43,0.174996083014282,1
583,809,43,0.145003855274938,1
584,807,43,0.130777400834311,1
584,808,43,0.138725760971635,1
575,806,44,0.170446703132241,1
575,807,44,0.231721973814091,2
575,808,44,0.177036613523479,1
576,805,44,0.133131007556132,1
576,806,44,0.289680054576825,2
576,807,44,0.403112475008312,2
576,808,44,0.289062452156481,2
576,809,44,0.136924889690804,1
577,805,44,0.169279651016593,2
577,806,44,0.372558149219302,2
577,807,44,0.490949996462229,2
577,808,44,0.328092258839692,2
577,809,44,0.138437133533364,2
577,814,44,0.121463607269209,1
578,805,44,0.189893924823458,2
578,806,44,0.382876686129273,2
578,807,44,0.465414688427929,2
578,808,44,0.301096030545988,2
578,809,44,0.13043670787031,2
578,812,44,0.126662457771691,1
578,813,44,0.18024065131158,1
578,814,44,0.210366346276235,1
578,815,44,0.161544016414502,1
579,805,44,0.1707222111415,1
579,806,44,0.279698736455308,2
579,807,44,0.321410418230438,2
579,808,44,0.24008788274462,2
579,809,44,0.141995690326454,1
579,811,44,0.118684113732872,1
579,812,44,0.146701160793889,1
579,813,44,0.202119477909849,1
579,814,44,0.233941913103874,1
579,815,44,0.183091288896987,1
579,816,44,0.126654049089182,1
580,805,44,0.135787609493059,1
580,806,44,0.168449535044609,1
580,807,44,0.209842581926241,2
580,808,44,0.234055135896086,1
580,809,44,0.192353405572945,1
580,810,44,0.13300642008798,1
580,813,44,0.120464493266412,1
580,814,44,0.136055639192243,1
580,815,44,0.130702865047759,1
580,816,44,0.133789405041196,1
580,817,44,0.133299028107046,1
581,804,44,0.163305364532168,1
581,805,44,0.133956836748797,1
581,806,44,0.120150168705965,1
581,807,44,0.164687250242109,1
581,808,44,0.254373009532949,1
581,809,44,0.240518444975042,1
581,810,44,0.137869417918493,1
581,816,44,0.125572108385986,1
582,803,44,0.134308682405145,1
582,804,44,0.176756689189374,1
582,805,44,0.147826852555236,1
582,806,44,0.120374329578334,1
582,807,44,0.145007411888549,1
582,808,44,0.216331729449769,1
582,809,44,0.201800395495433,1
583,804,44,0.128486505925318,1
583,805,44,0.124385930639534,1
583,806,44,0.117516296120917,1
583,807,44,0.130037578095933,1
583,808,44,0.15025004877978,1
583,809,44,0.123869291293627,1
584,808,44,0.113800223741616,1
574,807,45,0.159408269941603,2
574,808,45,0.141063904668058,1
575,806,45,0.211820341738279,2
575,807,45,0.335347986141737,2
575,808,45,0.277719139452135,2
575,809,45,0.146472018307092,1
576,805,45,0.150482594780926,2
576,806,45,0.319969447982477,2
576,807,45,0.481780575500595,2
576,808,45,0.369873070819761,2
576,809,45,0.166410099783975,2
577,805,45,0.179583207752683,2
577,806,45,0.356061586038629,2
577,807,45,0.46432513986913,2
577,808,45,0.321105373840603,2
577,809,45,0.141329932299978,2
577,813,45,0.157097483905499,1
577,814,45,0.186336545716994,1
577,815,45,0.142515403434455,1
578,805,45,0.185939017596428,2
578,806,45,0.333872650998033,2
578,807,45,0.399423630743801,2
578,808,45,0.272463571561751,2
578,809,45,0.133234220012024,1
578,812,45,0.163275981250852,1
578,813,45,0.241875658150171,1
578,814,45,0.279357442871128,1
578,815,45,0.196282780553925,1
579,805,45,0.162739592100229,1
579,806,45,0.237772221085885,2
579,807,45,0.284906702252274,2
579,808,45,0.234767989610731,1
579,809,45,0.147042784130324,1
579,811,45,0.12148727877039,1
579,812,45,0.160998288208936,1
579,813,45,0.216588441580478,1
579,814,45,0.237124234350594,1
579,815,45,0.179874084572409,1
579,816,45,0.135042604933527,1
579,817,45,0.12811253153727,1
580,805,45,0.128749306695883,1
580,806,45,0.143976370801323,1
580,807,45,0.181739351757942,1
580,808,45,0.20064784070215,1
580,809,45,0.163893560117463,1
580,810,45,0.115620550405506,1
580,814,45,0.11829378127759,1
580,815,45,0.116744781835437,1
580,816,45,0.136645212670891,1
580,817,45,0.161682064840788,1
580,818,45,0.127942662018353,1
580,819,45,0.113834565083627,1
581,804,45,0.165639515870929,1
581,805,45,0.121367861346525,1
581,807,45,0.137092604043196,1
581,808,45,0.18876747934267,1
581,809,45,0.175766160522079,1
582,803,45,0.186392273848131,1
582,804,45,0.192587894757024,1
582,805,45,0.128294413459771,1
582,807,45,0.127431934659308,1
582,808,45,0.170169452146777,1
582,809,45,0.15094063244033,1
583,803,45,0.144194443033838,1
583,804,45,0.143875054420899,1
583,808,45,0.123979145902089,1
574,806,46,0.143745238024128,1
574,807,46,0.233928110616619,2
574,808,46,0.227614414846615,2
575,805,46,0.120780725679193,1
575,806,46,0.244654032884214,2
575,807,46,0.434242454020052,2
575,808,46,0.398289424308149,2
575,809,46,0.197990437938317,2
576,805,46,0.176895408897036,2
576,806,46,0.326017010128764,2
576,807,46,0.502650689950065,2
576,808,46,0.414011493656179,2
576,809,46,0.189231417212069,2
576,813,46,0.114621660163167,1
576,814,46,0.136325152776575,1
577,805,46,0.205293154936735,2
577,806,46,0.327030856991252,2
577,807,46,0.400498104913789,2
577,808,46,0.290776174626996,2
577,809,46,0.147608297471205,2
577,812,46,0.142707578338066,1
577,813,46,0.211258585217734,1
577,814,46,0.251376009053678,1
577,815,46,0.194805914417607,1
577,816,46,0.124262579742339,1
578,805,46,0.186542016702611,1
578,806,46,0.272761196525843,2
578,807,46,0.310879355991961,2
578,808,46,0.235019590581484,2
578,809,46,0.144758072076117,1
578,811,46,0.120334311786787,1
578,812,46,0.183136535617153,1
578,813,46,0.271688135579807,1
578,814,46,0.307413377144532,1
578,815,46,0.218317450423397,1
578,816,46,0.1286795287633,1
579,805,46,0.151766838492716,1
579,806,46,0.190800025136543,1
579,807,46,0.232244678246121,2
579,808,46,0.214219996007171,1
579,809,46,0.150407493704794,1
579,812,46,0.148251926765981,1
579,813,46,0.193976175305344,1
579,814,46,0.20452313631327,1
579,815,46,0.161223815197792,1
579,816,46,0.134925719535909,1
579,817,46,0.136441402223416,1
580,804,46,0.122061589430366,1
580,805,46,0.116983251600311,1
580,806,46,0.120724950440591,1
580,807,46,0.149385756341913,1
580,808,46,0.161543839761508,1
580,809,46,0.131313154034156,1
580,816,46,0.127368787102428,1
580,817,46,0.164412119092571,1
580,818,46,0.127774771012968,1
581,803,46,0.159519337567289,1
581,804,46,0.152384087607072,1
581,808,46,0.130665803249643,1
581,809,46,0.115960607418729,1
582,802,46,0.176860302058719,1
582,803,46,0.222907601816426,1
582,804,46,0.183838436846178,1
582,808,46,0.118100334472423,1
583,802,46,0.158912923169891,1
583,803,46,0.182984967348403,1
583,804,46,0.143050803328312,1
583,822,46,0.146179021651439,1
583,823,46,0.135396452657139,1
584,822,46,0.153383943552444,1
584,823,46,0.14053439320733,1
587,826,46,0.121204445550318,1
573,807,47,0.138475490786769,1
573,808,47,0.153061410516214,2
573,815,47,0.17702871124622,1
573,816,47,0.169676107442329,1
574,806,47,0.159706377757212,1
574,807,47,0.298507286912444,2
574,808,47,0.318831331627227,2
574,809,47,0.181251612841834,2
574,815,47,0.206299111298829,1
575,805,47,0.133959568981769,1
575,806,47,0.254272623524959,2
575,807,47,0.468349106639901,2
575,808,47,0.460217510240456,2
575,809,47,0.225001269546183,2
576,805,47,0.206133363683103,2
576,806,47,0.30384670609059,2
576,807,47,0.437903881739912,2
576,808,47,0.375179962293301,2
576,809,47,0.185867225819715,2
576,812,47,0.114986483926132,1
576,813,47,0.153190767615201,1
576,814,47,0.177333072577812,1
576,815,47,0.178226324329809,1
577,805,47,0.232267148506943,1
577,806,47,0.274222564306165,2
577,807,47,0.296492783277679,2
577,808,47,0.228801687841629,2
577,809,47,0.145889322518339,1
577,812,47,0.16832216823602,1
577,813,47,0.245943317094762,1
577,814,47,0.28449988218423,1
577,815,47,0.245004276886751,1
577,816,47,0.161808654376203,1
578,805,47,0.183916093502288,1
578,806,47,0.202916653986907,1
578,807,47,0.213517600149764,2
578,808,47,0.18643782676682,1
578,809,47,0.147509254025969,1
578,810,47,0.113799599567704,1
578,811,47,0.119071030896938,1
578,812,47,0.176768206964575,1
578,813,47,0.253546367736512,1
578,814,47,0.278578803581562,1
578,815,47,0.22048601902256,1
578,816,47,0.14610390879844,1
579,804,47,0.121284351587884,1
579,805,47,0.133692610977415,1
579,806,47,0.143529073643948,1
579,807,47,0.171035817313105,1
579,808,47,0.17374512072654,1
579,809,47,0.137885787762592,1
579,812,47,0.12064663427997,1
579,813,47,0.153408863401447,1
579,814,47,0.160753470713148,1
579,815,47,0.141280163263168,1
579,816,47,0.131563918847405,1
579,817,47,0.128303622969185,1
580,804,47,0.116842152965665,1
580,807,47,0.12083308562658,1
580,808,47,0.126532205630868,1
580,817,47,0.138724324193951,1
580,818,47,0.116490001110794,1
581,802,47,0.142030867825969,1
581,803,47,0.164637492982165,1
581,804,47,0.139520746551569,1
582,801,47,0.14453421740227,1
582,802,47,0.22113240410404,1
582,803,47,0.235570747922396,1
582,804,47,0.163155303702298,1
582,822,47,0.117618919733496,1
583,801,47,0.136252866371479,1
583,802,47,0.215255959824493,1
583,803,47,0.203690346992645,1
583,804,47,0.130953665191606,1
583,822,47,0.182516295178768,1
583,823,47,0.167850116105769,1
584,802,47,0.119666587023646,1
584,822,47,0.202164748183748,1
584,823,47,0.183327438619209,1
584,824,47,0.118031616457803,1
585,822,47,0.119262958486358,1
587,802,47,0.115083454642907,1
588,802,47,0.122776574757804,1
569,813,48,0.183059090944636,1
569,814,48,0.20192994102428,1
570,813,48,0.170324635913469,1
570,814,48,0.183037397956987,1
572,815,48,0.139143015343184,1
572,816,48,0.13324616175441,1
573,807,48,0.184729368555522,2
573,808,48,0.22700185292503,2
573,814,48,0.139246086476681,1
573,815,48,0.254751847766762,1
573,816,48,0.233128249414054,1
573,817,48,0.117369615251664,1
574,806,48,0.175932602972914,2
574,807,48,0.366133939336326,2
574,808,48,0.423720530629792,2
574,809,48,0.226579958468175,2
574,814,48,0.14674982280527,1
574,815,48,0.245295518789331,1
574,816,48,0.215953126753281,1
575,805,48,0.15146623398146,1
575,806,48,0.257093465638732,2
575,807,48,0.45719080850448,2
575,808,48,0.467638867389565,2
575,809,48,0.231946181793926,2
575,813,48,0.121405665087216,1
575,815,48,0.180970086853918,1
576,804,48,0.225024422865247,1
576,805,48,0.248381646592449,1
576,806,48,0.283407153871541,2
576,807,48,0.347787677987313,2
576,808,48,0.299335930776145,2
576,809,48,0.168295540741409,2
576,812,48,0.137724692009038,1
576,813,48,0.18634338807629,1
576,814,48,0.210391831414819,1
576,815,48,0.223295249146201,1
577,804,48,0.264264116858923,1
577,805,48,0.270159851645403,1
577,806,48,0.230421313150737,1
577,807,48,0.204634875220333,2
577,808,48,0.169345648575108,2
577,809,48,0.137378770116419,1
577,810,48,0.116519655260034,1
577,811,48,0.117894251089761,1
577,812,48,0.171594523625289,1
577,813,48,0.246854987865588,1
577,814,48,0.282747508038653,1
577,815,48,0.284566233048732,1
577,816,48,0.209998931602693,1
578,805,48,0.186144783003702,1
578,806,48,0.152259747453111,1
578,807,48,0.141618312424057,1
578,808,48,0.143023104138871,1
578,809,48,0.137085903006295,1
578,812,48,0.148060069837759,1
578,813,48,0.206558956075963,1
578,814,48,0.227887991449807,1
578,815,48,0.215016983654369,1
578,816,48,0.166350779708629,1
579,804,48,0.120430505230389,1
579,805,48,0.116599997041651,1
579,807,48,0.121349454104563,1
579,808,48,0.130317255115847,1
579,809,48,0.114747696185869,1
579,814,48,0.123550679953861,1
579,815,48,0.125446025255819,1
579,816,48,0.123683923418713,1
580,803,48,0.116011883894419,1
581,802,48,0.150519103066329,1
581,803,48,0.166266245362623,1
581,804,48,0.128325257072503,1
582,801,48,0.145061997663658,1
582,802,48,0.231391750484194,1
582,803,48,0.216834483870357,1
582,804,48,0.13691086344309,1
582,822,48,0.126632344324667,1
582,823,48,0.117691547667714,1
583,801,48,0.144801187183491,1
583,802,48,0.229658431308224,1
583,803,48,0.190556302889318,1
583,822,48,0.189871642992496,1
583,823,48,0.181063771825006,1
583,824,48,0.127212672963302,1
584,802,48,0.119529527854126,1
584,822,48,0.223150629228543,1
584,823,48,0.210452788474575,1
584,824,48,0.127267282292144,1
585,822,48,0.129930326174914,1
585,823,48,0.124092839768951,1
588,802,48,0.127122791920015,1
590,798,48,0.116561286482259,1
568,813,49,0.174691026847581,1
568,814,49,0.196856431709391,1
569,812,49,0.168432611687795,1
569,813,49,0.302937979536329,3
569,814,49,0.343467523030133,3
569,815,49,0.17159083746615,1
570,812,49,0.170594809002312,1
570,813,49,0.253138322874377,3
570,814,49,0.279362577584817,3
570,815,49,0.150857016689892,1
571,813,49,0.149310407951589,1
571,814,49,0.150371868684361,1
572,808,49,0.139702522482273,1
572,815,49,0.162906776493639,1
572,816,49,0.148646381124453,1
573,807,49,0.220601314543233,2
573,808,49,0.295841687449695,2
573,809,49,0.202568576927762,1
573,814,49,0.168041549066806,1
573,815,49,0.296007317296759,1
573,816,49,0.263496123856454,1
573,817,49,0.126117259525106,1
574,806,49,0.180479462605576,2
574,807,49,0.380503765346788,2
574,808,49,0.471579736592014,2
574,809,49,0.267627236556448,2
574,810,49,0.15211513931232,1
574,814,49,0.161310940454374,1
574,815,49,0.252111497905272,1
574,816,49,0.219664606154741,1
574,817,49,0.115488190205623,1
575,804,49,0.151943538594063,1
575,805,49,0.170009416311186,1
575,806,49,0.243704228620442,2
575,807,49,0.388275625589491,2
575,808,49,0.407180628581286,2
575,809,49,0.22426823028277,2
575,810,49,0.129443623623037,1
575,812,49,0.122203795090441,1
575,813,49,0.145925088861167,1
575,814,49,0.165160456505254,1
575,815,49,0.18967211932434,1
575,816,49,0.162832523351877,1
576,803,49,0.184315352822194,1
576,804,49,0.280353012037182,1
576,805,49,0.274197762225824,1
576,806,49,0.253471490420838,1
576,807,49,0.260009276402015,2
576,808,49,0.224926274461847,2
576,809,49,0.152481953365682,1
576,810,49,0.122798314852918,1
576,811,49,0.122367257994113,1
576,812,49,0.157915870118689,1
576,813,49,0.20451602308605,1
576,814,49,0.228687216701594,1
576,815,49,0.250737420257661,1
576,816,49,0.203570128741875,1
577,803,49,0.221501750183648,1
577,804,49,0.329012338293027,4
577,805,49,0.281622322682555,1
577,806,49,0.192985575976851,1
577,807,49,0.149792576409957,1
577,808,49,0.134846684986446,1
577,809,49,0.127801999127758,1
577,810,49,0.121428641753287,1
577,811,49,0.120290466513706,1
577,812,49,0.157039800814563,1
577,813,49,0.218255527660608,1
577,814,49,0.261815211735336,1
577,815,49,0.302284834533616,1
577,816,49,0.250028170264091,1
577,817,49,0.134172235632671,1
578,804,49,0.21130364350804,1
578,805,49,0.179373132012358,1
578,806,49,0.127508284083264,1
578,808,49,0.120246750786153,1
578,809,49,0.119936877881151,1
578,812,49,0.115448973240981,1
578,813,49,0.156380366965268,1
578,814,49,0.184277113337452,1
578,815,49,0.205368503327059,1
578,816,49,0.182860403433983,1
578,817,49,0.119889264010867,1
579,804,49,0.11715163723408,1
579,815,49,0.114480255329998,1
579,816,49,0.117030170635486,1
580,803,49,0.13304904056697,1
581,802,49,0.15573961122586,1
581,803,49,0.165641070417275,1
581,804,49,0.117128472138148,1
581,822,49,0.130325275161769,1
582,801,49,0.140437740465944,1
582,802,49,0.207091906381639,1
582,803,49,0.183103689937158,1
582,804,49,0.114730761052189,1
582,822,49,0.131945830843311,1
582,823,49,0.124840965198041,1
583,801,49,0.134337476843148,1
583,802,49,0.195881295406297,1
583,803,49,0.15581427655794,1
583,822,49,0.170675103676464,1
583,823,49,0.171483868189921,1
583,824,49,0.136635155227106,1
584,822,49,0.20267296707028,1
584,823,49,0.204487311086111,1
584,824,49,0.130782665093529,1
585,822,49,0.136775029067661,1
585,823,49,0.141618441969586,1
588,802,49,0.1159190821883,1
606,825,49,0.185962430006551,1
607,825,49,0.186250609923904,1
567,814,50,0.134048131016035,1
568,812,50,0.157923101114572,1
568,813,50,0.223338305369243,3
568,814,50,0.241343461563936,3
568,815,50,0.149750073699629,1
569,811,50,0.173029523002057,1
569,812,50,0.245311959294628,3
569,813,50,0.399924477312056,3
569,814,50,0.438762132645388,3
569,815,50,0.215137602318592,3
570,811,50,0.221507332418255,1
570,812,50,0.258684308286702,3
570,813,50,0.329791684194569,3
570,814,50,0.347070019311234,3
570,815,50,0.187397653143778,3
571,811,50,0.217615666963035,1
571,812,50,0.193802843387747,1
571,813,50,0.181195260536786,3
571,814,50,0.181804136299232,3
572,808,50,0.16093859127387,1
572,809,50,0.16676211031645,1
572,811,50,0.255266426161074,1
572,815,50,0.176283942224013,1
572,816,50,0.155207143771701,1
573,807,50,0.223724704351194,2
573,808,50,0.314368299728595,2
573,809,50,0.244042672202987,1
573,810,50,0.226906413200868,1
573,814,50,0.192974387953905,1
573,815,50,0.281173553416898,1
573,816,50,0.249981039245323,1
573,817,50,0.135174741372951,1
574,806,50,0.178427237668184,2
574,807,50,0.335458735792035,2
574,808,50,0.441326757256834,2
574,809,50,0.299102843039151,2
574,810,50,0.186383900496221,1
574,814,50,0.172445378658754,1
574,815,50,0.237483711416277,1
574,816,50,0.215180823417762,1
574,817,50,0.124209466075512,1
575,804,50,0.167209513465622,1
575,805,50,0.180009930724704,1
575,806,50,0.216582553147349,1
575,807,50,0.296653231303589,2
575,808,50,0.322584713118835,2
575,809,50,0.217126173293855,2
575,810,50,0.148133215954092,1
575,811,50,0.135464546497847,1
575,812,50,0.140883624399368,1
575,813,50,0.154519692757576,1
575,814,50,0.17146677995698,1
575,815,50,0.187881505694021,1
575,816,50,0.164450511676574,1
576,803,50,0.22449969281222,1
576,804,50,0.302351774241431,4
576,805,50,0.265213379386847,1
576,806,50,0.20603641652006,1
576,807,50,0.186108062734707,1
576,808,50,0.170406002282451,2
576,809,50,0.142030514519981,1
576,810,50,0.135382073103437,1
576,811,50,0.145263252531155,1
576,812,50,0.163929573774483,1
576,813,50,0.19246904262274,1
576,814,50,0.222775559591933,1
576,815,50,0.245727564904901,1
576,816,50,0.202806139873935,1
577,802,50,0.148510711625152,1
577,803,50,0.279339471373217,4
577,804,50,0.349166984563543,4
577,805,50,0.255957893086593,4
577,806,50,0.150083323684154,1
577,808,50,0.113966536646923,1
577,809,50,0.118317935630287,1
577,810,50,0.119925395436549,1
577,811,50,0.120341531005804,1
577,812,50,0.1351685114107,1
577,813,50,0.178655449782547,1
577,814,50,0.238407206160827,1
577,815,50,0.295454322764711,1
577,816,50,0.258359054794367,1
577,817,50,0.135595399258849,1
578,803,50,0.20425865145083,1
578,804,50,0.218976695842832,4
578,805,50,0.156895263334969,1
578,813,50,0.116981496847239,1
578,814,50,0.155271304139079,1
578,815,50,0.191585082818221,1
578,816,50,0.184448796493773,1
578,817,50,0.120853341836545,1
579,804,50,0.115773508344475,1
580,803,50,0.136778938987259,1
581,802,50,0.150757101756553,1
581,803,50,0.150780537720408,1
581,821,50,0.116322239650937,1
581,822,50,0.132045898875912,1
582,802,50,0.164086677170375,1
582,803,50,0.14427118109438,1
582,822,50,0.131189732475764,1
582,823,50,0.125970896631242,1
583,802,50,0.14248434783813,1
583,803,50,0.118854689863764,1
583,822,50,0.138618261736424,1
583,823,50,0.144488782252244,1
583,824,50,0.139080150431095,1
584,822,50,0.153720078869202,1
584,823,50,0.165495296366724,1
584,824,50,0.125055115734091,1
584,825,50,0.115799770756232,1
585,822,50,0.125507818473079,1
585,823,50,0.140990075493481,1
585,826,50,0.122642271374989,1
605,825,50,0.181249587220838,1
606,824,50,0.202584452143479,1
606,825,50,0.23179494327743,1
606,826,50,0.222187611320828,1
607,824,50,0.204478713973742,1
607,825,50,0.234822351625382,1
607,826,50,0.224005111536816,1
608,825,50,0.182892507171405,1
567,813,51,0.146467601982244,1
567,814,51,0.163494854310272,1
568,812,51,0.220929158946146,3
568,813,51,0.264224004852446,3
568,814,51,0.259481837669748,3
568,815,51,0.183874780255452,1
569,811,51,0.229894628137911,3
569,812,51,0.32375262494572,3
569,813,51,0.44449958634935,3
569,814,51,0.454131461295235,3
569,815,51,0.264700214216486,3
569,816,51,0.147370911178027,1
570,810,51,0.235515231774852,1
570,811,51,0.291271274084516,3
570,812,51,0.343932874123483,3
570,813,51,0.384275589410958,3
570,814,51,0.37660435071357,3
570,815,51,0.240413560204141,3
570,816,51,0.140138337195046,1
571,810,51,0.211251165791991,1
571,811,51,0.254422825677224,1
571,812,51,0.226209976437788,3
571,813,51,0.210662817107434,3
571,814,51,0.216786387148556,3
571,815,51,0.190136198516134,1
572,808,51,0.171137451668919,1
572,809,51,0.175237131912867,1
572,810,51,0.238653224896974,1
572,811,51,0.280167243748816,1
572,812,51,0.17874159755923,1
572,813,51,0.159195191100382,1
572,814,51,0.185996959778422,1
572,815,51,0.191566981774781,1
572,816,51,0.169308892975514,1
573,807,51,0.202156857683355,1
573,808,51,0.278403446042968,2
573,809,51,0.257778478841541,1
573,810,51,0.24416310243735,1
573,811,51,0.241772068834558,1
573,813,51,0.174175329650974,1
573,814,51,0.2179872270935,1
573,815,51,0.23943476129564,1
573,816,51,0.222830180697641,1
573,817,51,0.167336892051077,1
574,806,51,0.187416048608874,1
574,807,51,0.26111422910188,2
574,808,51,0.349012825384216,2
574,809,51,0.300463542166693,2
574,810,51,0.200582125788426,1
574,812,51,0.132001064346065,1
574,814,51,0.192136393258394,1
574,815,51,0.224789568598315,1
574,816,51,0.215815808492703,1
574,817,51,0.147786210589777,1
575,804,51,0.188774557239292,1
575,807,51,0.21645093489004,1
575,808,51,0.241217166450176,2
575,809,51,0.205170392882853,1
575,810,51,0.1599348254089,1
575,811,51,0.162398298516049,1
575,812,51,0.157178014116977,1
575,813,51,0.159954516329285,1
575,814,51,0.181473842308138,1
575,815,51,0.190353964550125,1
575,816,51,0.16553264080963,1
576,803,51,0.247699200746484,1
576,804,51,0.290896699076289,1
576,805,51,0.23183460776299,1
576,807,51,0.142285719211809,1
576,808,51,0.144271946590687,1
576,809,51,0.141329001927543,1
576,810,51,0.151969930551349,1
576,811,51,0.174878632327083,1
576,812,51,0.169630578077373,1
576,813,51,0.176555398991278,1
576,814,51,0.21105300824032,1
576,815,51,0.22678855032335,1
576,816,51,0.183535700722129,1
577,802,51,0.177332625056894,1
577,803,51,0.317237003026843,1
577,804,51,0.325005518639529,4
577,805,51,0.210275193331392,1
577,806,51,0.121895052764601,1
577,809,51,0.118374570580126,1
577,810,51,0.123117291275537,1
577,811,51,0.126192231055709,1
577,812,51,0.124424276116072,1
577,813,51,0.15128595371277,1
577,814,51,0.215633761694075,1
577,815,51,0.270108928475699,1
577,816,51,0.2390769094375,1
577,817,51,0.126916237462701,1
578,803,51,0.258006149220056,1
578,804,51,0.215908421768963,1
578,805,51,0.135415401634949,1
578,814,51,0.141875707613009,1
578,815,51,0.184682955925596,1
578,816,51,0.186189805963409,1
578,817,51,0.123899204533924,1
579,804,51,0.121119181038605,1
580,803,51,0.13244134249115,1
580,821,51,0.126099629556316,1
580,822,51,0.130079173987559,1
581,802,51,0.140042520611165,1
581,803,51,0.129129982120833,1
581,821,51,0.128981911581361,1
581,822,51,0.131889749406187,1
581,823,51,0.123949279769256,1
582,802,51,0.128929422088445,1
582,803,51,0.115745290972919,1
582,821,51,0.121955939163158,1
582,822,51,0.128649132671486,1
582,823,51,0.12753140207173,1
582,824,51,0.15031404427103,1
583,822,51,0.116410495486681,1
583,823,51,0.125456801088446,1
583,824,51,0.141297746124492,1
583,825,51,0.14983868284136,1
584,823,51,0.128022791816378,1
584,824,51,0.11965587007535,1
584,825,51,0.121621217070351,1
584,826,51,0.144792048335274,1
585,823,51,0.127036714804529,1
585,826,51,0.138243121438617,1
585,827,51,0.159214693590907,1
586,827,51,0.120323100210109,1
586,828,51,0.117877092195621,1
605,825,51,0.170332938604181,1
605,826,51,0.169388163062302,1
606,824,51,0.211961452149792,1
606,825,51,0.265968653373757,1
606,826,51,0.237009621888163,1
606,827,51,0.165202876777518,1
607,823,51,0.16715565785622,1
607,824,51,0.259972862331543,1
607,825,51,0.294858201348423,1
607,826,51,0.239523723743359,1
607,827,51,0.166152551495761,1
608,824,51,0.201659921034699,1
608,825,51,0.196253809462929,1
608,826,51,0.15565653721127,1
565,815,52,0.197901899457784,1
565,816,52,0.201158038102214,1
566,815,52,0.235700105021383,1
567,812,52,0.220135916342418,3
567,813,52,0.198105191723143,3
567,814,52,0.198813146261424,1
567,815,52,0.19809814915712,1
568,811,52,0.241956918527357,3
568,812,52,0.311401259597086,3
568,813,52,0.309357078259349,3
568,814,52,0.271844697239851,3
568,815,52,0.223294613195423,3
568,816,52,0.172281409349833,1
569,810,52,0.191871566866833,3
569,811,52,0.29050003066696,3
569,812,52,0.407971845564017,3
569,813,52,0.451530799473037,3
569,814,52,0.413275203977679,3
569,815,52,0.312644072293377,3
569,816,52,0.199020442661312,3
570,809,52,0.219508492015614,1
570,810,52,0.247733000352646,3
570,811,52,0.32837094660284,3
570,812,52,0.399808263195814,3
570,813,52,0.403845231626935,3
570,814,52,0.372238595730236,3
570,815,52,0.308521792243078,3
570,816,52,0.19204083576557,3
571,810,52,0.22136049844974,1
571,811,52,0.258829776138731,3
571,812,52,0.238031005945056,3
571,813,52,0.225719093098389,3
571,814,52,0.24099752789445,3
571,815,52,0.244624355181242,3
571,816,52,0.17725815993154,1
572,811,52,0.248149783649545,1
572,812,52,0.172882677256676,1
572,813,52,0.171453695858566,1
572,814,52,0.207819292749247,1
572,815,52,0.202750223312938,1
572,816,52,0.176002734211486,1
573,808,52,0.214576670178685,1
573,809,52,0.240929787359729,1
573,813,52,0.185446120412899,1
573,814,52,0.227970665050943,1
573,815,52,0.207888870475104,1
573,816,52,0.200820466007771,1
573,817,52,0.196156108580446,1
574,807,52,0.188564764143757,1
574,808,52,0.245980131578687,2
574,809,52,0.266252381635664,1
574,810,52,0.194221722966839,1
574,811,52,0.15769302825534,1
574,812,52,0.13779441105729,1
574,813,52,0.16459712188463,1
574,814,52,0.211885420701225,1
574,815,52,0.21994423606719,1
574,816,52,0.213798195765246,1
574,817,52,0.169381579794063,1
575,804,52,0.221682124667268,1
575,808,52,0.172697709795215,1
575,809,52,0.179644200143037,1
575,810,52,0.160118238324014,1
575,811,52,0.175670108400872,1
575,812,52,0.164278298561272,1
575,813,52,0.17232076763687,1
575,814,52,0.211638130063523,1
575,815,52,0.208925470243204,1
575,816,52,0.170132213695666,1
576,803,52,0.247626254836877,1
576,804,52,0.259258760269074,1
576,805,52,0.186517980118577,1
576,808,52,0.121666134038262,1
576,809,52,0.134228811698178,1
576,810,52,0.157249593910098,1
576,811,52,0.189247268874053,1
576,812,52,0.170337896664876,1
576,813,52,0.173356966991517,1
576,814,52,0.215021647293408,1
576,815,52,0.216593811831492,1
576,816,52,0.166072633681329,1
577,802,52,0.175577247810421,1
577,803,52,0.306733828407667,1
577,804,52,0.266451269353042,1
577,805,52,0.155609135324578,1
577,810,52,0.120507007753606,1
577,811,52,0.12644516281235,1
577,812,52,0.117430277889763,1
577,813,52,0.135087851653693,1
577,814,52,0.192187964155741,1
577,815,52,0.234719162723222,1
577,816,52,0.209094609596412,1
577,817,52,0.118037822866322,1
578,803,52,0.266080274512157,1
578,804,52,0.18912888781442,1
578,814,52,0.12606477003219,1
578,815,52,0.17199149823314,1
578,816,52,0.182521594768584,1
578,817,52,0.125531018899609,1
579,804,52,0.114890090275804,1
579,821,52,0.140454275186171,1
579,822,52,0.140415894379034,1
580,803,52,0.1154955978545,1
580,820,52,0.120187948892923,1
580,821,52,0.161088663880606,1
580,822,52,0.15572717485509,1
580,823,52,0.135776433246979,1
581,802,52,0.115711691573483,1
581,821,52,0.137876295608388,1
581,822,52,0.133012897364422,1
581,823,52,0.126266590189267,1
581,824,52,0.138261163597725,1
582,821,52,0.11883748386216,1
582,822,52,0.120501072213012,1
582,823,52,0.124161133816386,1
582,824,52,0.150637213258038,1
582,825,52,0.163687029213883,1
583,824,52,0.133091083979514,1
583,825,52,0.140605525479533,1
583,826,52,0.134686354729198,1
584,825,52,0.115458488948918,1
584,826,52,0.146452021188184,1
584,827,52,0.160048236630972,1
585,826,52,0.131278647816018,1
585,827,52,0.169508958379518,1
585,828,52,0.144740712975252,1
586,827,52,0.127633095311875,1
586,828,52,0.136130116094463,1
603,826,52,0.122139281417075,1
603,827,52,0.217909805974715,1
604,826,52,0.145021332144467,1
605,825,52,0.143427262635141,1
606,824,52,0.200360909132621,1
606,825,52,0.25391225141744,1
606,826,52,0.208409455071208,1
607,823,52,0.161519237887893,1
607,824,52,0.282393095025461,1
607,825,52,0.314446239029496,1
607,826,52,0.222232622503669,1
608,824,52,0.19233459791753,1
608,825,52,0.194306657726298,1
564,815,53,0.211215340564832,1
564,816,53,0.25087699967656,1
565,814,53,0.198171259942855,1
565,815,53,0.272802250681621,5
565,816,53,0.255383676641547,1
565,817,53,0.184648214170133,1
566,812,53,0.142778722387135,1
566,813,53,0.160508547225563,1
566,814,53,0.216535704773371,1
566,815,53,0.249768231272027,1
566,816,53,0.201348163831096,1
567,811,53,0.23935392488564,3
567,812,53,0.275696839531906,3
567,813,53,0.248920862190974,3
567,814,53,0.234803697069228,3
567,815,53,0.214831026936143,1
568,810,53,0.183016470465645,3
568,811,53,0.316140741654277,3
568,812,53,0.400524014019558,3
568,813,53,0.351088992690712,3
568,814,53,0.296988071165059,3
568,815,53,0.265188647967704,3
568,816,53,0.207159010965582,1
569,810,53,0.209759460804187,3
569,811,53,0.354782830346516,3
569,812,53,0.469651486725729,3
569,813,53,0.430505183281485,3
569,814,53,0.367125198169329,3
569,815,53,0.351121096428133,3
569,816,53,0.247535219660696,3
569,817,53,0.146923036954205,1
570,810,53,0.234353679455747,3
570,811,53,0.324008889555512,3
570,812,53,0.395340591211876,3
570,813,53,0.374124331109327,3
570,814,53,0.345932868659017,3
570,815,53,0.370151146185864,3
570,816,53,0.257107809861835,3
570,817,53,0.14596782710882,1
571,810,53,0.20720044198108,1
571,811,53,0.230362475926908,3
571,812,53,0.225558126890364,3
571,813,53,0.223456545106481,3
571,814,53,0.246228717671678,3
571,815,53,0.28588853959227,3
571,816,53,0.219420471717196,1
572,811,53,0.186203196260346,1
572,812,53,0.157682876596625,1
572,813,53,0.170231080487909,1
572,814,53,0.203000811473193,1
572,815,53,0.202268997003871,1
573,814,53,0.205187540000126,1
573,815,53,0.181581259105284,1
573,816,53,0.184828082248503,1
574,809,53,0.198614399866441,1
574,810,53,0.164248067345586,1
574,811,53,0.146094758173357,1
574,812,53,0.140585987658409,1
574,813,53,0.166297548273139,1
574,814,53,0.211689171001888,1
574,815,53,0.205181039169951,1
574,816,53,0.200839732960971,1
575,808,53,0.129367969034191,1
575,809,53,0.147086700064603,1
575,810,53,0.150035474276545,1
575,811,53,0.167293765166837,1
575,812,53,0.164532184244079,1
575,813,53,0.196561221002882,1
575,814,53,0.259512057108568,1
575,815,53,0.236575408829201,1
575,816,53,0.178350358285247,1
576,804,53,0.222027917014359,1
576,809,53,0.126475735557157,1
576,810,53,0.152296915243024,1
576,811,53,0.179066073778393,1
576,812,53,0.170826259754896,1
576,813,53,0.197224682540438,1
576,814,53,0.253293989492586,1
576,815,53,0.231187186317279,1
576,816,53,0.166473435770714,1
577,803,53,0.257215897940358,1
577,804,53,0.20324141285086,1
577,805,53,0.115777253387945,1
577,810,53,0.117495451067639,1
577,811,53,0.123354783560512,1
577,812,53,0.120734442594796,1
577,813,53,0.139571339969016,1
577,814,53,0.181991553348874,1
577,815,53,0.201972337742812,1
577,816,53,0.182186813791445,1
577,817,53,0.114875534069108,1
578,804,53,0.160129190809635,1
578,815,53,0.149521414064348,1
578,816,53,0.16870139510642,1
578,817,53,0.126359686317043,1
578,821,53,0.123625993013586,1
578,822,53,0.117048106802798,1
579,820,53,0.144035643769204,1
579,821,53,0.197902723838422,1
579,822,53,0.177631345269548,1
579,823,53,0.126152531239551,1
580,820,53,0.138930690221404,1
580,821,53,0.195936823330707,1
580,822,53,0.181884077667397,1
580,823,53,0.140720573686015,1
580,824,53,0.128616392983287,1
581,821,53,0.137675417600611,1
581,822,53,0.136783802833024,1
581,823,53,0.131865135755706,1
581,824,53,0.149913901686155,1
581,825,53,0.182124961689854,1
581,826,53,0.169106884388577,1
582,823,53,0.121937555474929,1
582,824,53,0.143698719402406,1
582,825,53,0.163828339832122,1
582,826,53,0.148568948228802,1
583,824,53,0.118354573461218,1
583,825,53,0.12463465805492,1
583,826,53,0.128265136170252,1
583,827,53,0.122778812362393,1
584,826,53,0.13520065047872,1
584,827,53,0.155051347607963,1
584,828,53,0.121931902579124,1
585,826,53,0.11554092701273,1
585,827,53,0.16157276374504,1
585,828,53,0.147885159820083,1
586,827,53,0.121692113805229,1
586,828,53,0.143101337861428,1
590,832,53,0.132121741894619,1
591,832,53,0.115994147933834,1
591,833,53,0.142088197610917,1
592,833,53,0.133575195620815,1
594,832,53,0.124871797033907,1
603,827,53,0.162300208996979,1
603,828,53,0.161001432632227,1
604,826,53,0.117091221910172,1
604,827,53,0.179436986181214,1
605,826,53,0.124662781211546,1
606,824,53,0.171300302175545,1
606,825,53,0.205479464960949,1
607,823,53,0.142211230532722,1
607,824,53,0.254881369741877,1
607,825,53,0.281144912078156,1
607,826,53,0.196515491431199,1
608,823,53,0.124374177327007,1
608,824,53,0.175951304636533,1
608,825,53,0.193609243483318,1
563,815,54,0.133398036221684,1
563,816,54,0.156453324651742,1
564,814,54,0.182197012557625,1
564,815,54,0.26991190150319,5
564,816,54,0.262924097908532,1
564,817,54,0.189982522188323,1
565,813,54,0.1261616936415,1
565,814,54,0.242782099992378,5
565,815,54,0.350608308117492,5
565,816,54,0.297293186216092,5
565,817,54,0.205716109311554,1
566,811,54,0.156920183183973,1
566,812,54,0.150348927348889,3
566,813,54,0.169448813923535,1
566,814,54,0.217408770976601,1
566,815,54,0.252728723465896,5
566,816,54,0.210478980225134,1
567,810,54,0.195228809908094,1
567,811,54,0.253904313809582,3
567,812,54,0.302064677795774,3
567,813,54,0.284165372075015,3
567,814,54,0.261765843111979,3
567,815,54,0.220806020032544,3
567,816,54,0.185750316868364,1
568,810,54,0.216602550266256,3
568,811,54,0.387093393093235,3
568,812,54,0.465418080165411,3
568,813,54,0.394426612175264,3
568,814,54,0.350049118953792,3
568,815,54,0.305245350281217,3
568,816,54,0.235861707180186,3
568,817,54,0.164504567492702,1
569,809,54,0.134866905865812,1
569,810,54,0.243731009214314,3
569,811,54,0.420758460335844,3
569,812,54,0.497157017377661,3
569,813,54,0.403870669658054,3
569,814,54,0.356342841158621,3
569,815,54,0.372597436845141,3
569,816,54,0.279448619369704,3
569,817,54,0.157191486851977,1
570,810,54,0.214088754609583,3
570,811,54,0.298613726229691,3
570,812,54,0.346039331529997,3
570,813,54,0.312269567946347,3
570,814,54,0.316082281290168,3
570,815,54,0.400643054583702,3
570,816,54,0.316351264915519,3
570,817,54,0.171274016210056,3
571,811,54,0.188644446420864,3
571,812,54,0.197604062510099,3
571,813,54,0.203505120440127,3
571,814,54,0.234394286090607,3
571,815,54,0.301980378987093,3
571,816,54,0.267412096763632,3
571,817,54,0.187262348727331,1
572,814,54,0.182448201338059,1
572,815,54,0.194400083606329,1
572,816,54,0.195117247654025,1
574,809,54,0.138558588355091,1
574,810,54,0.135609531498359,1
574,811,54,0.137861327211373,1
574,812,54,0.145211281220355,1
574,813,54,0.164147893321188,1
574,814,54,0.197397284292327,1
574,815,54,0.187183102194275,1
574,816,54,0.189255300696842,1
575,809,54,0.125108547376307,1
575,810,54,0.141341167430389,1
575,811,54,0.152512938300809,1
575,812,54,0.164030395526524,1
575,813,54,0.219198148035963,1
575,814,54,0.296442872918474,1
575,815,54,0.260381260499665,1
575,816,54,0.192724482851893,1
575,817,54,0.135463274596291,1
576,809,54,0.1245697792987,1
576,810,54,0.145261356455687,1
576,811,54,0.155322721937164,1
576,812,54,0.165914517474938,1
576,813,54,0.220295280896632,1
576,814,54,0.289305997750713,1
576,815,54,0.25118162009921,1
576,816,54,0.177798423671162,1
577,810,54,0.117291134214915,1
577,811,54,0.117369674135995,1
577,812,54,0.12296851412409,1
577,813,54,0.143219589375533,1
577,814,54,0.172172072923486,1
577,815,54,0.174451579602807,1
577,816,54,0.158831191718055,1
577,817,54,0.115476566438626,1
578,804,54,0.136750544962709,1
578,815,54,0.117184424029744,1
578,816,54,0.137740767431481,1
578,817,54,0.117489515527044,1
578,820,54,0.120464304836552,1
578,821,54,0.155043268677709,1
578,822,54,0.130695351407086,1
579,804,54,0.115200410701723,1
579,820,54,0.18061122218528,1
579,821,54,0.254910270171676,1
579,822,54,0.206807871921209,1
579,823,54,0.126910066384782,1
580,803,54,0.119420167874047,1
580,820,54,0.149045616890627,1
580,821,54,0.213632141950997,1
580,822,54,0.19252573645691,1
580,823,54,0.137626237407115,1
580,824,54,0.130166758541926,1
580,825,54,0.158916903750687,1
580,826,54,0.147642450383356,1
581,821,54,0.1235495493747,1
581,822,54,0.130192950292486,1
581,823,54,0.127393848273827,1
581,824,54,0.148216914142594,1
581,825,54,0.198093532625547,1
581,826,54,0.18426109679934,1
581,827,54,0.13303645109694,1
582,824,54,0.122757248920273,1
582,825,54,0.150013828396361,1
582,826,54,0.146162569369275,1
582,827,54,0.117412200400055,1
584,827,54,0.131176919245274,1
585,827,54,0.135634098041375,1
585,828,54,0.136809205533544,1
586,828,54,0.130391626026271,1
589,832,54,0.135407982209206,1
589,833,54,0.138745628545013,1
590,831,54,0.122144851874816,1
590,832,54,0.16976443393927,1
590,833,54,0.156732224398482,1
590,834,54,0.125506087273739,1
591,832,54,0.134181927993602,1
591,833,54,0.150117511926904,1
591,834,54,0.139699884464231,1
592,833,54,0.131969926311677,1
592,834,54,0.166478900236658,1
593,833,54,0.166797087609239,1
593,834,54,0.198591576299631,1
594,832,54,0.128154009660234,1
594,833,54,0.216922315738915,1
594,834,54,0.196995210301385,1
595,833,54,0.133298521701797,1
604,827,54,0.123971078748701,1
604,828,54,0.119061903825588,1
606,824,54,0.127156073344062,1
606,825,54,0.141829930933861,1
607,824,54,0.188300844570898,1
607,825,54,0.206048640907237,1
607,826,54,0.160583436318103,1
607,827,54,0.154375249492912,1
608,824,54,0.148375937167686,1
608,825,54,0.178415825884779,1
563,815,55,0.146739942014479,1
563,816,55,0.148790718397321,1
564,814,55,0.216500185744735,1
564,815,55,0.318206521764732,5
564,816,55,0.263679937185022,5
564,817,55,0.18570663647141,1
565,813,55,0.135790141519304,1
565,814,55,0.27888078598617,5
565,815,55,0.421262981286371,5
565,816,55,0.331865449020348,5
565,817,55,0.216970365353251,5
566,811,55,0.174283217522771,1
566,812,55,0.152115834147429,3
566,813,55,0.172785706539901,3
566,814,55,0.219359561764906,1
566,815,55,0.269240361035381,5
566,816,55,0.229494709313494,5
566,817,55,0.182555453259078,1
567,810,55,0.208112960686277,1
567,811,55,0.256949622994247,3
567,812,55,0.302118427413379,3
567,813,55,0.305826656399752,3
567,814,55,0.279271024226521,3
567,815,55,0.23031515647828,3
567,816,55,0.196823421153268,1
568,809,55,0.130956727176834,1
568,810,55,0.247133086785423,3
568,811,55,0.418604989679225,3
568,812,55,0.48390959738286,3
568,813,55,0.437783427951817,3
568,814,55,0.40457558576484,3
568,815,55,0.340281550954873,3
568,816,55,0.25635220612267,3
568,817,55,0.168740930046451,1
569,809,55,0.143475324026343,1
569,810,55,0.276908631962472,3
569,811,55,0.445526105119931,3
569,812,55,0.472298879153241,3
569,813,55,0.385312919344765,3
569,814,55,0.369481207371866,3
569,815,55,0.382427516450162,3
569,816,55,0.29687590829081,3
569,817,55,0.166801998562469,3
570,810,55,0.194686367448214,1
570,811,55,0.261370211066881,3
570,812,55,0.27748586328528,3
570,813,55,0.254764072153939,3
570,814,55,0.287533461610101,3
570,815,55,0.380738124985338,3
570,816,55,0.333824554276232,3
570,817,55,0.185845273741008,3
571,811,55,0.155952077670035,1
571,812,55,0.170395980169265,3
571,813,55,0.183271887141066,1
571,814,55,0.219381136983892,3
571,815,55,0.296084220233429,3
571,816,55,0.297753732348008,3
571,817,55,0.203303830242032,1
572,814,55,0.173187862968907,1
572,815,55,0.202802159293139,1
572,816,55,0.221295395933062,1
572,817,55,0.19332438464225,1
573,813,55,0.143867046151843,1
573,816,55,0.173271726033535,1
574,810,55,0.120872844327069,1
574,811,55,0.134384666746247,1
574,812,55,0.152849038286969,1
574,813,55,0.16821274937161,1
574,814,55,0.182612347299974,1
574,815,55,0.173398303792085,1
574,816,55,0.177467894142743,1
574,817,55,0.166622260029627,1
575,809,55,0.122855020463954,1
575,810,55,0.136211977091828,1
575,811,55,0.140680814985525,1
575,812,55,0.166336682799717,1
575,813,55,0.228235950740289,1
575,814,55,0.294872875323781,1
575,815,55,0.269566886429272,1
575,816,55,0.213800810229556,1
575,817,55,0.151882746410435,1
576,808,55,0.131005966254662,1
576,809,55,0.146232453293655,1
576,810,55,0.141889427662201,1
576,811,55,0.134909019939554,1
576,812,55,0.160663931198982,1
576,813,55,0.225281935822862,1
576,814,55,0.290617705114618,1
576,815,55,0.268298541486932,1
576,816,55,0.206021507007377,1
576,817,55,0.136918000224043,1
577,808,55,0.132545296889617,1
577,809,55,0.136425915644285,1
577,810,55,0.11957049957184,1
577,812,55,0.124359809550172,1
577,813,55,0.144341017911295,1
577,814,55,0.161592772640813,1
577,815,55,0.160840560639131,1
577,816,55,0.147623984257062,1
577,817,55,0.117722096858789,1
578,820,55,0.127624451092041,1
578,821,55,0.168099479471933,1
578,822,55,0.137971805993747,1
579,804,55,0.116250565642886,1
579,820,55,0.183778386605124,1
579,821,55,0.261494716096969,1
579,822,55,0.206161675269589,1
579,823,55,0.128545508025275,1
579,824,55,0.119926455354512,1
579,825,55,0.145233445282654,1
579,826,55,0.141102697665514,1
580,803,55,0.130271678643426,1
580,804,55,0.115917480534489,1
580,820,55,0.140755574532536,1
580,821,55,0.198277699260102,1
580,822,55,0.178212415850758,1
580,823,55,0.131943334147664,1
580,824,55,0.141649568227108,1
580,825,55,0.193315045587307,1
580,826,55,0.179026138424909,1
580,827,55,0.129138720555597,1
581,822,55,0.115371469684132,1
581,823,55,0.116425664090422,1
581,824,55,0.13944947295697,1
581,825,55,0.195941192548089,1
581,826,55,0.182761030236492,1
581,827,55,0.130876067419827,1
581,828,55,0.116419445905038,1
582,825,55,0.126477372541567,1
582,826,55,0.130341550790939,1
585,828,55,0.114256541978546,1
588,833,55,0.114911159089541,1
588,834,55,0.129574982789288,1
589,832,55,0.142674744434936,1
589,833,55,0.139519592418675,1
589,834,55,0.126627668908762,1
590,831,55,0.13066068031282,1
590,832,55,0.185214669660315,1
590,833,55,0.151971390882765,1
591,832,55,0.14269050188199,1
591,833,55,0.147566713356446,1
591,834,55,0.125422235985977,1
592,833,55,0.136265361626579,1
592,834,55,0.149063529504206,1
592,835,55,0.128137262956414,1
593,833,55,0.163593544449521,1
593,834,55,0.171162183088062,1
593,835,55,0.138638211747867,1
594,832,55,0.122340924921159,1
594,833,55,0.201187668697721,1
594,834,55,0.176749999929339,1
594,835,55,0.122764833222144,1
595,833,55,0.12500393347333,1
607,824,55,0.120049441168853,1
607,825,55,0.132650546743371,1
607,826,55,0.125848428999016,1
607,827,55,0.133938547275497,1
607,828,55,0.164824427180291,1
607,829,55,0.176356558381365,1
608,824,55,0.114774747647665,1
608,825,55,0.146351941378717,1
608,826,55,0.175400041303825,1
608,827,55,0.179263583602419,1
563,814,56,0.129562522864786,1
563,815,56,0.16453205469855,5
563,816,56,0.148434715507184,1
564,813,56,0.121208932536363,1
564,814,56,0.229647973450986,5
564,815,56,0.340505287860058,5
564,816,56,0.259428841771584,5
564,817,56,0.179746494003361,1
565,813,56,0.139577039972286,1
565,814,56,0.283984314533152,5
565,815,56,0.445483661293935,5
565,816,56,0.343950068348221,5
565,817,56,0.22157137501697,5
565,818,56,0.210619454685869,1
566,811,56,0.185027523478596,1
566,812,56,0.146263261575788,1
566,813,56,0.168092118930521,3
566,814,56,0.221269981455675,3
566,815,56,0.285685129558248,5
566,816,56,0.24508042610398,5
566,817,56,0.186977937407181,1
567,810,56,0.223832980859577,1
567,811,56,0.244396731910192,3
567,812,56,0.269569171141326,3
567,813,56,0.290613536103962,3
567,814,56,0.278698880509936,3
567,815,56,0.24158020012947,3
567,816,56,0.199660774433535,1
568,809,56,0.149056734252375,1
568,810,56,0.262562430345725,3
568,811,56,0.382733785634089,3
568,812,56,0.432854102810535,3
568,813,56,0.431860841910268,3
568,814,56,0.415148102572548,3
568,815,56,0.351927788213128,3
568,816,56,0.254371313664208,3
568,817,56,0.161743634297589,1
569,809,56,0.151599606991841,1
569,810,56,0.279510188826505,3
569,811,56,0.396223432214101,3
569,812,56,0.395918646915323,3
569,813,56,0.356551079707809,3
569,814,56,0.370520704249065,3
569,815,56,0.377414245806187,3
569,816,56,0.297617356236732,3
569,817,56,0.175730417732983,1
570,810,56,0.175559606064766,1
570,811,56,0.219664700369671,3
570,812,56,0.220540404590943,3
570,813,56,0.219412793200395,3
570,814,56,0.264670300976189,3
570,815,56,0.331271965622103,3
570,816,56,0.308518895133978,3
570,817,56,0.188177246359512,3
571,812,56,0.148047492144595,1
571,813,56,0.166233847203545,1
571,814,56,0.208434516242607,1
571,815,56,0.275375590174099,3
571,816,56,0.291206242229035,3
571,817,56,0.199029251757273,1
572,815,56,0.212409679679601,1
572,816,56,0.237293891885918,1
572,817,56,0.186787929446961,1
573,813,56,0.146754215576385,1
573,814,56,0.140387582792547,1
573,815,56,0.149536712213618,1
573,816,56,0.169472402986651,1
574,810,56,0.113911197152373,1
574,811,56,0.137651710768832,1
574,812,56,0.172961758913604,1
574,813,56,0.186995626260301,1
574,814,56,0.17549827214529,1
574,815,56,0.166705675573338,1
574,816,56,0.170191627985942,1
574,817,56,0.149555496315301,1
575,809,56,0.119565647502942,1
575,810,56,0.131927129179692,1
575,811,56,0.148629893511691,1
575,812,56,0.189435651626729,1
575,813,56,0.232631312765398,1
575,814,56,0.264820715112047,1
575,815,56,0.269264927578396,1
575,816,56,0.244491135270122,1
575,817,56,0.176838102665821,1
575,820,56,0.114425304472034,1
576,808,56,0.147822707098313,1
576,809,56,0.155715327327634,1
576,810,56,0.135357800982078,1
576,811,56,0.133141536074567,1
576,812,56,0.16515546311396,1
576,813,56,0.210164467234827,1
576,814,56,0.256479796691718,1
576,815,56,0.276177241460335,1
576,816,56,0.24716158680177,1
576,817,56,0.172550251652789,1
577,808,56,0.157096259111408,1
577,809,56,0.150026853610443,1
577,810,56,0.115057604421469,1
577,812,56,0.126397902248053,1
577,813,56,0.137945767342448,1
577,814,56,0.146825924915035,1
577,815,56,0.156428781662458,1
577,816,56,0.149748990227933,1
577,817,56,0.123093984857211,1
577,821,56,0.116375730177485,1
578,820,56,0.121835002523547,1
578,821,56,0.163645197784932,1
578,822,56,0.139955301139652,1
579,820,56,0.156895958170078,1
579,821,56,0.223041010157406,1
579,822,56,0.181264461402922,1
579,823,56,0.123926538640511,1
579,824,56,0.123518540885841,1
579,825,56,0.160287589660816,1
579,826,56,0.159116639402436,1
579,827,56,0.123272345496701,1
580,804,56,0.125378237613634,1
580,820,56,0.11852804670121,1
580,821,56,0.162671462928922,1
580,822,56,0.146670376065488,1
580,823,56,0.1168565207425,1
580,824,56,0.137891075575543,1
580,825,56,0.201850140978511,1
580,826,56,0.192118563082878,1
580,827,56,0.132904173335121,1
581,824,56,0.116747961589327,1
581,825,56,0.163583051261684,1
581,826,56,0.157019968571784,1
581,827,56,0.116619617300838,1
581,829,56,0.124604203078774,1
588,834,56,0.115107090813488,1
589,832,56,0.130339183640821,1
589,833,56,0.125288933636793,1
590,831,56,0.117681148694808,1
590,832,56,0.167851541106586,1
590,833,56,0.134278380528261,1
591,832,56,0.1306362197616,1
591,833,56,0.128710136838707,1
592,833,56,0.129786094893843,1
592,834,56,0.125837229199204,1
593,833,56,0.145892608264025,1
593,834,56,0.1414399753383,1
594,833,56,0.152355611144458,1
594,834,56,0.139262256114054,1
607,828,56,0.132406553628222,1
607,829,56,0.16897397067598,1
607,830,56,0.167204402305665,1
608,826,56,0.135172562652693,1
608,827,56,0.139621238551355,1
608,828,56,0.153313623884012,1
608,829,56,0.20294428251515,1
609,826,56,0.119506197882067,1
609,827,56,0.1139700697068,1
563,814,57,0.159247527494036,1
563,815,57,0.194524930165538,5
563,816,57,0.156302003697182,1
564,813,57,0.130746945858166,1
564,814,57,0.228246950333375,5
564,815,57,0.337321129422201,5
564,816,57,0.262509505108757,5
564,817,57,0.183468513700123,1
565,813,57,0.141781963757589,1
565,814,57,0.255709330547335,5
565,815,57,0.405527250773481,5
565,816,57,0.34256972540776,5
565,817,57,0.237932833987923,5
565,818,57,0.207097182417723,1
566,811,57,0.196669391519469,1
566,812,57,0.148211426122917,1
566,813,57,0.167204920487781,1
566,814,57,0.228305811110936,3
566,815,57,0.291690648291992,5
566,816,57,0.259128319698392,5
566,817,57,0.199664071956088,1
567,810,57,0.244526654298759,1
567,811,57,0.241471476100169,3
567,812,57,0.239384309200587,3
567,813,57,0.265752712754035,3
567,814,57,0.287539915332811,3
567,815,57,0.267093862283587,3
567,816,57,0.203505191101324,1
568,809,57,0.174241256548291,1
568,810,57,0.272990021037252,3
568,811,57,0.328264224640803,3
568,812,57,0.358312404271743,3
568,813,57,0.38622232895727,3
568,814,57,0.392419999040892,3
568,815,57,0.343320500631758,3
568,816,57,0.236585160074464,3
568,817,57,0.147146102578013,1
569,810,57,0.251764786962613,3
569,811,57,0.310488811553087,3
569,812,57,0.313848186207141,3
569,813,57,0.328650529407824,3
569,814,57,0.359530367780227,3
569,815,57,0.351414081306919,3
569,816,57,0.274187728335771,3
569,817,57,0.174380635760464,1
570,811,57,0.183899900311183,3
570,812,57,0.186295079370897,3
570,813,57,0.210327859477301,3
570,814,57,0.25906225147868,3
570,815,57,0.28343904562537,3
570,816,57,0.259131876312002,3
570,817,57,0.180041280742685,1
571,814,57,0.204437447834371,1
571,815,57,0.246238963545323,1
571,816,57,0.250247903034748,1
571,817,57,0.181909586359713,1
572,815,57,0.214387533706569,1
572,816,57,0.230745530278841,1
573,813,57,0.164232580766455,1
573,814,57,0.154518479740351,1
573,815,57,0.15797781643521,1
573,816,57,0.166914985817356,1
574,811,57,0.143959518105707,1
574,812,57,0.199772960861516,1
574,813,57,0.216642780041396,1
574,814,57,0.181528604736241,1
574,815,57,0.164613385736934,1
574,816,57,0.164571730960976,1
574,817,57,0.1414630815499,1
574,820,57,0.118651503590201,1
575,809,57,0.118654365368702,1
575,810,57,0.13025211726857,1
575,811,57,0.166255057339678,1
575,812,57,0.219593473882538,1
575,813,57,0.22888907218927,1
575,814,57,0.221920394225416,1
575,815,57,0.250395160970448,1
575,816,57,0.262122658605889,1
575,817,57,0.206293175758235,1
575,818,57,0.123237839278562,1
575,820,57,0.129502319524471,1
575,821,57,0.143138599866271,1
576,808,57,0.159796588552754,1
576,809,57,0.158476048539155,1
576,810,57,0.133024627123216,1
576,811,57,0.144805980368058,1
576,812,57,0.172539946894813,1
576,813,57,0.180480534300406,1
576,814,57,0.205335645870197,1
576,815,57,0.267148318513168,1
576,816,57,0.2843197903454,1
576,817,57,0.221260559962668,1
576,818,57,0.132702777145229,1
576,820,57,0.11703469295213,1
576,821,57,0.132621587429241,1
577,808,57,0.171857607040644,1
577,809,57,0.158113203289722,1
577,810,57,0.118079077228826,1
577,811,57,0.117161977322655,1
577,812,57,0.128461067894199,1
577,813,57,0.125692515066616,1
577,814,57,0.132206170248828,1
577,815,57,0.160046293448039,1
577,816,57,0.166700811727573,1
577,817,57,0.143456481040329,1
577,821,57,0.129014757261357,1
577,822,57,0.116319931385151,1
578,808,57,0.121765660335015,1
578,809,57,0.116293692527126,1
578,821,57,0.144984046585891,1
578,822,57,0.136018907146381,1
579,820,57,0.117742470837417,1
579,821,57,0.164177394371167,1
579,822,57,0.149269930862258,1
579,823,57,0.117219542644928,1
579,824,57,0.118075214416693,1
579,825,57,0.156052157479502,1
579,826,57,0.160882439175548,1
579,827,57,0.124311159315657,1
580,804,57,0.122702097855583,1
580,821,57,0.1227227898096,1
580,822,57,0.115315423577607,1
580,824,57,0.124752379610043,1
580,825,57,0.184913122999758,1
580,826,57,0.184731370622786,1
580,827,57,0.129482758149615,1
581,825,57,0.126058528293073,1
581,826,57,0.127281779614508,1
590,832,57,0.122939460595029,1
593,833,57,0.119302187227866,1
607,829,57,0.157531673410728,1
607,830,57,0.173018605847035,1
608,828,57,0.122623428388975,1
608,829,57,0.193105087615645,1
608,830,57,0.215169611841083,1
609,829,57,0.13888770465956,1
563,815,58,0.224465987420988,1
563,816,58,0.165824318456262,1
564,814,58,0.217047174074991,1
564,815,58,0.305177468424102,5
564,816,58,0.260375136529211,5
564,817,58,0.189419116906502,1
565,813,58,0.135836978116416,1
565,814,58,0.214926537321502,5
565,815,58,0.322863707080506,5
565,816,58,0.322415573765627,5
565,817,58,0.258676347125112,5
565,818,58,0.196045947773461,1
566,813,58,0.164490211492733,1
566,814,58,0.243647157926552,3
566,815,58,0.286842418651767,3
566,816,58,0.255500715138427,5
566,817,58,0.206236835230053,1
567,811,58,0.229726902008653,1
567,812,58,0.206818259117249,1
567,813,58,0.238325969337374,3
567,814,58,0.318088776655877,3
567,815,58,0.309715848713057,3
567,816,58,0.208179146674651,3
568,810,58,0.252748202402688,1
568,811,58,0.267937250783845,3
568,812,58,0.271489930920671,3
568,813,58,0.306684813090298,3
568,814,58,0.352748941989889,3
568,815,58,0.321128197407412,3
568,816,58,0.21155043951736,3
569,811,58,0.220572272791039,3
569,812,58,0.231237873949657,3
569,813,58,0.275205108258136,3
569,814,58,0.325665611993334,3
569,815,58,0.30576049396511,3
569,816,58,0.232685368581525,3
570,813,58,0.192579792273038,1
570,814,58,0.251096638232287,3
570,815,58,0.248738650516218,3
570,816,58,0.211522434129396,1
571,814,58,0.192626734861945,1
571,815,58,0.21219748410335,1
571,816,58,0.200788432931547,1
573,813,58,0.173278851037622,1
573,814,58,0.165449802332366,1
573,815,58,0.158887520469371,1
573,816,58,0.154889686564828,1
573,817,58,0.128883680739896,1
574,811,58,0.140798430548852,1
574,812,58,0.208033089979309,1
574,813,58,0.228694424143744,1
574,814,58,0.184965176748622,1
574,815,58,0.159216931195496,1
574,816,58,0.155368863699166,1
574,817,58,0.139742222298432,1
574,820,58,0.116461383325785,1
574,821,58,0.12425917622799,1
575,810,58,0.12324946304556,1
575,811,58,0.170591111066307,1
575,812,58,0.228878920530554,1
575,813,58,0.211937851309809,1
575,814,58,0.181702584381482,1
575,815,58,0.213335105830218,1
575,816,58,0.247625218472646,1
575,817,58,0.220844012203095,1
575,818,58,0.148678743952932,1
575,820,58,0.133042433744999,1
575,821,58,0.151779722384403,1
576,808,58,0.151285565076184,1
576,809,58,0.148059433886981,1
576,810,58,0.132278009133007,1
576,811,58,0.153724448086584,1
576,812,58,0.170756046078261,1
576,813,58,0.147987441903541,1
576,814,58,0.158039056139756,1
576,815,58,0.232447075469645,1
576,816,58,0.282302436709001,1
576,817,58,0.24824618907674,1
576,818,58,0.165154049890009,1
576,819,58,0.117143617188157,1
576,820,58,0.126441241115885,1
576,821,58,0.146933424150245,1
576,822,58,0.114767834627171,1
577,808,58,0.161403742160493,1
577,809,58,0.158140890702296,1
577,810,58,0.130367636549702,1
577,811,58,0.128098835041811,1
577,812,58,0.125641709665576,1
577,814,58,0.115453154028503,1
577,815,58,0.152424011183689,1
577,816,58,0.171452753709265,1
577,817,58,0.157054957641439,1
577,818,58,0.125875280254086,1
577,821,58,0.131666153823397,1
577,822,58,0.118518672315668,1
578,808,58,0.136212247959752,1
578,809,58,0.144666612932752,1
578,810,58,0.117908206676277,1
578,821,58,0.120176572440117,1
578,822,58,0.124866297237364,1
579,808,58,0.113985662277727,1
579,809,58,0.118483447708688,1
579,822,58,0.118772181138755,1
579,825,58,0.138672717966005,1
579,826,58,0.14788737387094,1
579,827,58,0.114830805531057,1
580,825,58,0.147550637934002,1
580,826,58,0.156549635864006,1
580,827,58,0.11577575772593,1
582,806,58,0.114784757983985,1
607,829,58,0.139412163844663,1
607,830,58,0.153734941274421,1
608,829,58,0.166512958933879,1
608,830,58,0.179681874338199,1
609,829,58,0.122693748057406,1
609,830,58,0.124041363086534,1
563,815,59,0.232850951321124,1
564,814,59,0.189084689235351,1
564,815,59,0.246636974517405,1
564,816,59,0.237904569508902,1
565,814,59,0.179352758033731,1
565,815,59,0.24021175182393,5
565,816,59,0.276016793434425,5
565,817,59,0.25346758050124,1
566,813,59,0.166346940450229,1
566,814,59,0.24496291653245,3
566,815,59,0.267913390852804,3
566,816,59,0.228342083859013,1
566,817,59,0.193645292470936,1
567,812,59,0.189322334619587,1
567,813,59,0.215353802029371,3
567,814,59,0.323672919114881,3
567,815,59,0.326590260870778,3
567,816,59,0.203979021538381,3
568,811,59,0.227124944731167,1
568,812,59,0.210040362618191,1
568,813,59,0.232826455439306,3
568,814,59,0.29706695261526,3
568,815,59,0.283174207456942,3
568,816,59,0.18501885570503,1
569,813,59,0.215840398589452,1
569,814,59,0.275303303769002,3
569,815,59,0.259345791310727,3
569,816,59,0.190598558285454,1
570,814,59,0.23472644082657,1
570,815,59,0.229520853956589,1
573,814,59,0.170998873283651,1
573,815,59,0.151015757070195,1
573,816,59,0.134672198935955,1
573,817,59,0.116742614892045,1
574,811,59,0.135803637808037,1
574,812,59,0.198561474629474,1
574,813,59,0.223024970065561,1
574,814,59,0.188425396708451,1
574,815,59,0.15743471447082,1
574,816,59,0.148391565069212,1
574,817,59,0.144842076463141,1
574,818,59,0.132029246387022,1
574,821,59,0.116345828714054,1
575,811,59,0.163855202864058,1
575,812,59,0.21687549091867,1
575,813,59,0.194976125465646,1
575,814,59,0.16149815729729,1
575,815,59,0.180849220875504,1
575,816,59,0.217633944659469,1
575,817,59,0.226973823983334,1
575,818,59,0.191326403950847,1
575,819,59,0.135495743416567,1
575,820,59,0.131849896490767,1
575,821,59,0.146415136043062,1
575,822,59,0.11926166303107,1
576,809,59,0.125620475975711,1
576,810,59,0.13195634758488,1
576,811,59,0.160283997716607,1
576,812,59,0.16703912576459,1
576,813,59,0.132970359323495,1
576,814,59,0.132139548516402,1
576,815,59,0.191193466684517,1
576,816,59,0.248563504961217,1
576,817,59,0.254143478409565,1
576,818,59,0.206669823494924,1
576,819,59,0.14414076407743,1
576,820,59,0.13514512255431,1
576,821,59,0.149517115508164,1
576,822,59,0.123200977687172,1
577,808,59,0.131875970472664,1
577,809,59,0.148182525693118,1
577,810,59,0.146419552367909,1
577,811,59,0.141287182275458,1
577,812,59,0.122874475847013,1
577,815,59,0.138791110802505,1
577,816,59,0.165492787894211,1
577,817,59,0.166493067806768,1
577,818,59,0.14586725267097,1
577,819,59,0.116251802213844,1
577,821,59,0.12749318614072,1
577,822,59,0.118607599432788,1
578,808,59,0.13638353070262,1
578,809,59,0.160671291740394,1
578,810,59,0.136608186203373,1
579,808,59,0.121314535696106,1
579,809,59,0.132954590099575,1
579,825,59,0.118530649388653,1
579,826,59,0.122574801708192,1
580,826,59,0.116555445156594,1
608,829,59,0.121838594467756,1
608,830,59,0.126419465690173,1
564,815,60,0.186667522766331,1
565,814,60,0.152405580387994,1
565,815,60,0.187228584451767,1
565,816,60,0.21565719765793,1
566,813,60,0.169294666521073,1
566,814,60,0.224692739203935,1
566,815,60,0.244323809554317,1
566,816,60,0.195759345956187,1
567,813,60,0.200626477466756,1
567,814,60,0.2888934776794,3
567,815,60,0.300214814751307,3
567,816,60,0.189140499804551,1
568,813,60,0.194342965804974,1
568,814,60,0.244631162209939,3
568,815,60,0.241685179115301,1
568,816,60,0.163580519235438,1
569,813,60,0.183723023556842,1
569,814,60,0.22858857366981,1
569,815,60,0.22361202329483,1
570,814,60,0.216119392551123,1
573,816,60,0.115470795774159,1
574,812,60,0.17220162108093,1
574,813,60,0.197740509282573,1
574,814,60,0.18210139618047,1
574,815,60,0.154056779475541,1
574,816,60,0.142923683833915,1
574,817,60,0.148695290450026,1
574,818,60,0.147709390091171,1
574,819,60,0.119360871352434,1
575,811,60,0.145533814256584,1
575,812,60,0.183207314583369,1
575,813,60,0.17099535200064,1
575,814,60,0.14743212732884,1
575,815,60,0.156537953212677,1
575,816,60,0.19097077792043,1
575,817,60,0.226490689821933,1
575,818,60,0.224305492287613,1
575,819,60,0.163630994884224,1
575,820,60,0.132562090700902,1
575,821,60,0.134213607763838,1
575,822,60,0.128859750147658,1
575,823,60,0.117691453452784,1
576,810,60,0.126805287605677,1
576,811,60,0.153872424411126,1
576,812,60,0.151897926791042,1
576,813,60,0.120080096351725,1
576,815,60,0.149928363677921,1
576,816,60,0.204702639308787,1
576,817,60,0.242014907816815,1
576,818,60,0.232795835587033,1
576,819,60,0.171784284271317,1
576,820,60,0.141440469966683,1
576,821,60,0.139113372970811,1
576,822,60,0.12963286608695,1
576,823,60,0.119331252533793,1
577,809,60,0.134577124294648,1
577,810,60,0.153903220916393,1
577,811,60,0.145191531415639,1
577,812,60,0.115552362349867,1
577,815,60,0.117846307467221,1
577,816,60,0.149717027812907,1
577,817,60,0.166436338641999,1
577,818,60,0.158199975240316,1
577,819,60,0.12973718556827,1
577,820,60,0.116794185789393,1
577,821,60,0.118444890248557,1
577,822,60,0.117158149841121,1
577,823,60,0.115481854251576,1
578,808,60,0.12265715733394,1
578,809,60,0.156960507174043,1
578,810,60,0.143596731740605,1
579,809,60,0.130760324378236,1
566,814,61,0.197880512668658,1
566,815,61,0.21879358912624,1
567,813,61,0.200563047265087,1
567,814,61,0.23678075026929,1
567,815,61,0.246758488223463,1
567,816,61,0.17789173178253,1
568,814,61,0.207621653379692,1
568,815,61,0.203858520642821,1
569,814,61,0.193270163949995,1
574,813,61,0.159766993287846,1
574,814,61,0.163818918339115,1
574,815,61,0.147679841933728,1
574,816,61,0.142218932603256,1
574,817,61,0.147599759243168,1
574,818,61,0.152398526045105,1
574,819,61,0.137868193124402,1
574,820,61,0.121126741786743,1
574,822,61,0.120618758437536,1
575,812,61,0.139937894931322,1
575,813,61,0.146943163618641,1
575,814,61,0.140689282552365,1
575,815,61,0.142692527502987,1
575,816,61,0.173658914065526,1
575,817,61,0.215875446543438,1
575,818,61,0.232492416404741,1
575,819,61,0.194988491175217,1
575,820,61,0.15144265669521,1
575,821,61,0.12891590224598,1
575,822,61,0.136251559139324,1
575,823,61,0.133638343177694,1
576,811,61,0.135349686721225,1
576,812,61,0.130860298195907,1
576,813,61,0.117503341568032,1
576,815,61,0.123391762920565,1
576,816,61,0.170084646932847,1
576,817,61,0.221841041700564,1
576,818,61,0.23596708657947,1
576,819,61,0.196177483592705,1
576,820,61,0.153440519617951,1
576,821,61,0.126860415116635,1
576,822,61,0.126601288728342,1
576,823,61,0.126110817579262,1
577,810,61,0.141067791033923,1
577,811,61,0.137061077372221,1
577,816,61,0.132580439058533,1
577,817,61,0.159318600881908,1
577,818,61,0.161380447519034,1
577,819,61,0.14266220207237,1
577,820,61,0.124410862265404,1
577,823,61,0.119175456370055,1
578,809,61,0.127216735982161,1
578,810,61,0.129609371238763,1
578,824,61,0.122939319272634,1
567,814,62,0.178612110914715,1
567,815,62,0.177842268944244,1
574,814,62,0.140129221900562,1
574,815,62,0.141985173584885,1
574,816,62,0.148717112983204,1
574,817,62,0.151178901998478,1
574,818,62,0.155167302633147,1
574,819,62,0.163791749108656,1
574,820,62,0.151311580173749,1
574,821,62,0.128370880652389,1
574,822,62,0.130595248043886,1
575,813,62,0.120952856356432,1
575,814,62,0.130667875978104,1
575,815,62,0.132475412965237,1
575,816,62,0.164562227029905,1
575,817,62,0.206154821133426,1
575,818,62,0.227920307170821,1
575,819,62,0.228927841632993,1
575,820,62,0.185305198431246,1
575,821,62,0.136372366233407,1
575,822,62,0.138850925506233,1
575,823,62,0.1489597635356,1
576,816,62,0.149773439002287,1
576,817,62,0.206139181455035,1
576,818,62,0.22788905136777,1
576,819,62,0.217174481999248,1
576,820,62,0.171126687613158,1
576,821,62,0.124927902024764,1
576,822,62,0.122408959877536,1
576,823,62,0.130109405203246,1
577,810,62,0.115134931325324,1
577,811,62,0.118539800013737,1
577,816,62,0.11920581713127,1
577,817,62,0.151649835326434,1
577,818,62,0.162311962309506,1
577,819,62,0.157717359261031,1
577,820,62,0.135109980385394,1
577,823,62,0.120506159819235,1
578,824,62,0.125233511704179,1
574,815,63,0.143634358828302,1
574,816,63,0.155843871822849,1
574,817,63,0.154670460199421,1
574,818,63,0.154496539438511,1
574,819,63,0.183616195603008,1
574,820,63,0.189461360525772,1
574,821,63,0.15510716995403,1
575,814,63,0.123251830195678,1
575,815,63,0.128252240501698,1
575,816,63,0.155315255403956,1
575,817,63,0.189113507227086,1
575,818,63,0.210838151092295,1
575,819,63,0.24294537446619,1
575,820,63,0.215161933324282,1
575,821,63,0.152131120519833,1
575,822,63,0.139707739634026,1
575,823,63,0.153413715470346,1
576,816,63,0.145794353868828,1
576,817,63,0.190821517917466,1
576,818,63,0.211796528914703,1
576,819,63,0.222802599276863,1
576,820,63,0.183353618592902,1
576,821,63,0.132614674408747,1
576,822,63,0.126637785236878,1
576,823,63,0.136979322366653,1
577,816,63,0.117907770932226,1
577,817,63,0.144100699178418,1
577,818,63,0.159085371822519,1
577,819,63,0.168595850831009,1
577,820,63,0.148035091104424,1
577,821,63,0.122462026436898,1
577,822,63,0.121666452013651,1
577,823,63,0.12894382519588,1
578,824,63,0.117715419375621,1
574,817,64,0.155439654442248,1
574,818,64,0.156316406804617,1
574,819,64,0.197934356501193,1
574,820,64,0.223074691994906,1
574,821,64,0.179866429609341,1
575,815,64,0.124890875557246,1
575,816,64,0.142933694170235,1
575,817,64,0.168222559501204,1
575,818,64,0.194944363257346,1
575,819,64,0.240946345633689,1
575,820,64,0.2317236461291,1
575,821,64,0.169392273188626,1
575,822,64,0.141698689536273,1
575,823,64,0.152915554027599,1
575,824,64,0.138824757309406,1
576,815,64,0.117848898377798,1
576,816,64,0.14008443447818,1
576,817,64,0.171035369792187,1
576,818,64,0.200586765873732,1
576,819,64,0.22571770342817,1
576,820,64,0.191916436727279,1
576,821,64,0.145161205985022,1
576,822,64,0.138188229464984,1
576,823,64,0.152441641152478,1
576,824,64,0.13922937510346,1
577,816,64,0.115908271025074,1
577,817,64,0.136252006660242,1
577,818,64,0.160642603294187,1
577,819,64,0.184301950748392,1
577,820,64,0.164949179524571,1
577,821,64,0.13838970809294,1
577,822,64,0.139422127073518,1
577,823,64,0.148570455667683,1
577,824,64,0.131589533531518,1
578,819,64,0.121494003361023,1
578,820,64,0.118096365668494,1
578,823,64,0.117611971382403,1
575,816,65,0.140134333060518,1
575,817,65,0.157323799944394,1
575,818,65,0.194271833532771,1
575,819,65,0.236394115750013,1
575,820,65,0.23387226471682,1
575,821,65,0.183836988291628,1
575,822,65,0.149034405313948,1
575,823,65,0.145382340202764,1
575,824,65,0.140267976938823,1
575,825,65,0.119086411484272,1
576,815,65,0.120369948584086,1
576,816,65,0.133106782542237,1
576,817,65,0.153203003779243,1
576,818,65,0.200147936283197,1
576,819,65,0.231348717814884,1
576,820,65,0.203252718642468,1
576,821,65,0.167028432370026,1
576,822,65,0.15875512493889,1
576,823,65,0.167085950584834,1
576,824,65,0.164625633677843,1
576,825,65,0.132671909978765,1
577,817,65,0.127054509649446,1
577,818,65,0.169603597276774,1
577,819,65,0.203572272131535,1
577,820,65,0.187425152126492,1
577,821,65,0.162119116124518,1
577,822,65,0.160714548170162,1
577,823,65,0.164135127198164,1
577,824,65,0.148115397555443,1
578,818,65,0.119718240359057,1
578,819,65,0.1388162779657,1
578,820,65,0.139228244524299,1
578,821,65,0.128291351474544,1
578,822,65,0.125236667904337,1
578,823,65,0.119695428569114,1
575,818,66,0.186695469269963,1
575,819,66,0.218290175201142,1
575,820,66,0.208859684668282,1
575,821,66,0.176246138483322,1
575,822,66,0.147179030696072,1
575,823,66,0.133041821347954,1
575,824,66,0.129837618683725,1
575,825,66,0.118967630011186,1
576,817,66,0.122977334996918,1
576,818,66,0.177992989278624,1
576,819,66,0.211040548315819,1
576,820,66,0.196151621594401,1
576,821,66,0.177332413073301,1
576,822,66,0.168236091120535,1
576,823,66,0.16424342726028,1
576,824,66,0.166063365287583,1
576,825,66,0.142678960553057,1
577,818,66,0.168191633450408,1
577,819,66,0.204395098223304,1
577,820,66,0.190297953774198,1
577,821,66,0.17295330312363,1
577,822,66,0.168729023634663,1
577,823,66,0.158828259278357,1
577,824,66,0.143122642212491,1
578,818,66,0.131582055221443,1
578,819,66,0.149867571494293,1
578,820,66,0.145540491739753,1
578,821,66,0.135108178524856,1
578,822,66,0.127752453851407,1
579,817,66,0.116184426761977,1
575,818,67,0.188568685840221,1
575,819,67,0.200841617259572,1
575,820,67,0.176317753607042,1
575,821,67,0.155961899576494,1
575,822,67,0.138859958362654,1
575,823,67,0.124438832322768,1
575,824,67,0.118563400853719,1
576,818,67,0.158885530178973,1
576,819,67,0.185591788471654,1
576,820,67,0.179277456750872,1
576,821,67,0.1763430385389,1
576,822,67,0.168012589752675,1
576,823,67,0.152202888742814,1
576,824,67,0.148260229456694,1
576,825,67,0.13094625754273,1
577,818,67,0.162159710982512,1
577,819,67,0.187857221795795,1
577,820,67,0.17374184675772,1
577,821,67,0.171955673005981,1
577,822,67,0.169681171494821,1
577,823,67,0.145886908260756,1
577,824,67,0.126220189336208,1
578,818,67,0.146430987705046,1
578,819,67,0.154922308484365,1
578,820,67,0.137155374740355,1
578,821,67,0.129556257571936,1
578,822,67,0.12448824805359,1
579,817,67,0.123812161715405,1
579,818,67,0.136524947312656,1
579,819,67,0.118986838080054,1
575,819,68,0.180374212751821,1
575,820,68,0.157063908059795,1
575,821,68,0.148470528957477,1
575,822,68,0.140074165050802,1
575,823,68,0.124784012272814,1
576,818,68,0.136878323961617,1
576,819,68,0.159570743588509,1
576,820,68,0.165258063172806,1
576,821,68,0.179771708274021,1
576,822,68,0.174603088987226,1
576,823,68,0.147172306105438,1
576,824,68,0.127658286028802,1
577,818,68,0.142888282573941,1
577,819,68,0.161162245740991,1
577,820,68,0.155298037625486,1
577,821,68,0.172149225802944,1
577,822,68,0.173376080845455,1
577,823,68,0.138265697691235,1
578,818,68,0.148401434083137,1
578,819,68,0.149965896550688,1
578,820,68,0.123141539843164,1
578,821,68,0.120914711086619,1
578,822,68,0.118059657176365,1
579,817,68,0.118099828067174,1
579,818,68,0.146624328518417,1
579,819,68,0.130135679391869,1
575,820,69,0.151261563822748,1
575,821,69,0.151366837230236,1
575,822,69,0.146870688783684,1
575,823,69,0.126979561672575,1
576,818,69,0.125432564297686,1
576,819,69,0.144781990891489,1
576,820,69,0.157546688915208,1
576,821,69,0.175198386022876,1
576,822,69,0.17563149205641,1
576,823,69,0.141125026603941,1
577,818,69,0.127660264542334,1
577,819,69,0.140678353620477,1
577,820,69,0.143727525617275,1
577,821,69,0.160927132383,1
577,822,69,0.164798553405121,1
577,823,69,0.12687384074417,1
578,818,69,0.146831895786228,1
578,819,69,0.145881867761997,1
578,820,69,0.116992437555993,1
579,818,69,0.144633378616169,1
579,819,69,0.134600206952515,1
576,820,70,0.146040113513916,1
576,821,70,0.162722833619543,1
576,822,70,0.163873056593307,1
576,823,70,0.131264880659361,1
577,818,70,0.118618222166154,1
577,819,70,0.127717417674287,1
577,820,70,0.134116684154528,1
577,821,70,0.144379905123681,1
577,822,70,0.143631508826667,1
578,818,70,0.136695087699497,1
578,819,70,0.135405285306833,1
579,818,70,0.13178667827269,1
579,819,70,0.127446667518998,1
