x,y,z,fucci_ch00,fucci_ch02
749,1020,52,0.014679179064622,0.0308842603189136
750,1020,52,0.00158693827725643,0.0251468680857557
751,1020,52,0.0992599374380102,0.012115663385977
752,1020,52,0.0093690394445716,0.00782787823300526
753,1020,52,0.00193789578088045,0.0142366674296178
754,1020,52,0.00187685969329366,0.0197909514000153
755,1020,52,0.00195315480277714,0.0274204623483635
756,1020,52,0.0021362630655375,0.0209964141298543
757,1020,52,0.0496375982299535,0.00990310521095598
758,1020,52,0.0585336079957275,0.0161440451667048
747,1021,52,0.00163271534294652,0.0466315709163043
748,1021,52,0.0361486228732738,0.0230106050202182
749,1021,52,0.0539101243610285,0.0425574120698863
750,1021,52,0.00222781719691768,0.0304875257495994
751,1021,52,0.00198367284657053,0.00965896086060884
752,1021,52,0.00170901045243,0.00675974670023652
753,1021,52,0.103562981612879,0.0271457999542229
754,1021,52,0.0418554970626383,0.0346227206836042
755,1021,52,0.0380865186541543,0.0375677119096666
756,1021,52,0.00198367284657053,0.0140535591668574
757,1021,52,0.0672159914549477,0.0299839780270085
758,1021,52,0.0511024643320363,0.028900587472343
759,1021,52,0.0753490501258869,0.0199435416189822
760,1021,52,0.0834515907530327,0.00794995040817884
745,1022,52,0.0325932707713436,0.0334325169756619
746,1022,52,0.00177004654001678,0.0169680323491264
747,1022,52,0.00199893186846723,0.0336308842603189
748,1022,52,0.00189211871519036,0.0460975051499199
749,1022,52,0.0182345311665522,0.0202182040131228
750,1022,52,0.0108796826123445,0.0372167544060426
751,1022,52,0.00665293354695964,0.0257419699397269
752,1022,52,0.00210574502174411,0.0170748455024033
753,1022,52,0.0120393682764935,0.0139314869916838
754,1022,52,0.00198367284657053,0.0256961928740368
755,1022,52,0.0531319142442969,0.0330205233844511
756,1022,52,0.031113145647364,0.0214084077210651
757,1022,52,0.0462348363469902,0.0339513237201495
758,1022,52,0.0924696726939803,0.0220035095750362
759,1022,52,0.00202944991226062,0.0076752880140383
760,1022,52,0.00222781719691768,0.0197604333562219
761,1022,52,0.00196841382467384,0.0124055848020142
750,1019,53,0.09228656443122,0.00744640268558785
751,1019,53,0.0903334096284428,0.0221560997940032
752,1019,53,0.00292973220416571,0.00875867856870375
753,1019,53,0.0382696269169146,0.0106660563057908
754,1019,53,0.0265201800564584,0.0484626535439078
755,1019,53,0.0335851071946288,0.0256961928740368
756,1019,53,0.0561684596017395,0.00801098649576562
757,1019,53,0.0545204852368963,0.00791943236438544
747,1020,53,0.00161745632104982,0.0167696650644694
748,1020,53,0.0174563210498207,0.00859082932784009
749,1020,53,0.00630197604333562,0.0175631342030976
750,1020,53,0.00186160067139696,0.0358129243915465
751,1020,53,0.0482795452811475,0.00903334096284428
752,1020,53,0.0622720683604181,0.00973525597009232
753,1020,53,0.0021362630655375,0.0164034485389487
754,1020,53,0.00152590218966964,0.0100862134737163
755,1020,53,0.0323033493553063,0.0125581750209812
756,1020,53,0.069565880827039,0.024979018844892
757,1020,53,0.0214389257648585,0.0142977035172045
758,1020,53,0.0402075226977951,0.0221255817502098
759,1020,53,0.0410467689021134,0.0139162279697871
760,1020,53,0.0848554207675288,0.0152895399404898
745,1021,53,0.0513313496604868,0.0109864957656214
746,1021,53,0.00790417334248875,0.0245670252536812
747,1021,53,0.00283817807278553,0.0241092545967803
748,1021,53,0.00772106507972839,0.0263981078812848
749,1021,53,0.0277409018081941,0.0312199588006409
750,1021,53,0.00225833524071107,0.0393682764934768
751,1021,53,0.0903944457160296,0.0221560997940032
752,1021,53,0.0640115968566415,0.0159304188601511
753,1021,53,0.0126802471961547,0.0201113908598459
754,1021,53,0.036743724727245,0.012115663385977
755,1021,53,0.0260471503776608,0.0254062714579995
756,1021,53,0.00193789578088045,0.0366369115739681
757,1021,53,0.00396734569314107,0.0139314869916838
758,1021,53,0.0324406805523766,0.0089723048752575
759,1021,53,0.00199893186846723,0.0130769817654688
760,1021,53,0.0021515220874342,0.0142214084077211
761,1021,53,0.00164797436484321,0.014175631342031
744,1022,53,0.0146944380865187,0.0302128633554589
745,1022,53,0.0356298161287861,0.0231784542610819
746,1022,53,0.00138857099259937,0.014679179064622
747,1022,53,0.00250247959105821,0.0553444724193179
748,1022,53,0.0297856107423514,0.020706492713817
749,1022,53,0.0513160906385901,0.0148928053711757
750,1022,53,0.00216678110933089,0.0178988326848249
751,1022,53,0.00645456626230259,0.00865186541542687
752,1022,53,0.0258945601586938,0.0438696879530022
753,1022,53,0.00164797436484321,0.0251163500419623
754,1022,53,0.0617380025940337,0.0246128023193713
755,1022,53,0.071274891279469,0.0356145571068894
756,1022,53,0.060868238345922,0.0207217517357137
757,1022,53,0.0234836346990158,0.0316929884794385
758,1022,53,0.0285343709468223,0.0250095368886854
759,1022,53,0.0458991378652628,0.0297398336766613
760,1022,53,0.00819409475852598,0.0231021591515984
761,1022,53,0.0356755931944762,0.0159609369039445
751,1018,54,0.00430304417486839,0.011261158159762
752,1018,54,0.102372777904936,0.0127870603494316
753,1018,54,0.0326543068589303,0.0145571068894484
754,1018,54,0.00187685969329366,0.0195773250934615
755,1018,54,0.00364690623331044,0.0121919584954604
756,1018,54,0.0496223392080568,0.0151674677653162
748,1019,54,0.020004577706569,0.0115510795757992
749,1019,54,0.0139314869916838,0.0156862745098039
750,1019,54,0.0562294956893263,0.0155642023346304
751,1019,54,0.00276188296330205,0.0347295338368811
752,1019,54,0.132005798428321,0.0210879682612345
753,1019,54,0.00224307621881437,0.0253299763485161
754,1019,54,0.00210574502174411,0.01538109407187
755,1019,54,0.0693980315861753,0.0168001831082628
756,1019,54,0.0373693446250095,0.0116578927290761
757,1019,54,0.128938735027085,0.0233463035019455
758,1019,54,0.00181582360570687,0.0234531166552224
759,1019,54,0.00692759594110018,0.00856031128404669
745,1020,54,0.040665293354696,0.0106355382619974
746,1020,54,0.00404364080262455,0.0133821622034028
747,1020,54,0.115465018692302,0.015533684290837
748,1020,54,0.0294346532387274,0.0207217517357137
749,1020,54,0.0581521324483101,0.0202182040131228
750,1020,54,0.0017242694743267,0.0382085908293278
751,1020,54,0.022369726100557,0.0208896009765774
752,1020,54,0.00164797436484321,0.0147859922178988
753,1020,54,0.0737010757610437,0.0356755931944762
754,1020,54,0.007690547035935,0.014526588845655
755,1020,54,0.00695811398489357,0.0253604943923095
756,1020,54,0.00186160067139696,0.0230258640421149
757,1020,54,0.0661173418783856,0.0198672465094987
758,1020,54,0.00671396963454643,0.011261158159762
759,1020,54,0.046494239719234,0.0109254596780346
760,1020,54,0.0126039520866712,0.0242923628595407
744,1021,54,0.0874952315556573,0.015579461356527
745,1021,54,0.0118257419699397,0.0182497901884489
746,1021,54,0.0523689631494621,0.0178072785534447
747,1021,54,0.00744640268558785,0.0138857099259937
748,1021,54,0.0665751125352865,0.0250400549324788
749,1021,54,0.0540932326237888,0.038605325398642
750,1021,54,0.00151064316777295,0.0102693217364767
751,1021,54,0.0231174181734951,0.054184786755169
752,1021,54,0.0215915159838254,0.0257419699397269
753,1021,54,0.00614938582436866,0.0186617837796597
754,1021,54,0.00872816052491035,0.0209658960860609
755,1021,54,0.00289921416037232,0.0260318913557641
756,1021,54,0.055893797207599,0.024277103837644
757,1021,54,0.00411993591210803,0.0199130235751888
758,1021,54,0.00712596322575723,0.0189822232394903
759,1021,54,0.0189669642175937,0.0100404364080262
760,1021,54,0.0388952468146792,0.0142671854734112
761,1021,54,0.00318913557640955,0.00863660639353018
743,1022,54,0.106492713817044,0.00859082932784009
744,1022,54,0.0141451132982376,0.00738536659800107
745,1022,54,0.00791943236438544,0.00759899290455482
746,1022,54,0.0178835736629282,0.0192263675898375
747,1022,54,0.0542305638208591,0.0117647058823529
748,1022,54,0.0110017547875181,0.00746166170748455
749,1022,54,0.0181582360570687,0.0308537422751202
750,1022,54,0.0474097810330358,0.0110933089188983
751,1022,54,0.0419012741283284,0.03076218814374
752,1022,54,0.0563057907988098,0.0227817196917678
753,1022,54,0.0628213931486992,0.0352483405813687
754,1022,54,0.0172732127870604,0.0414892805371176
755,1022,54,0.00204470893415732,0.0149538414587625
756,1022,54,0.0325474937056535,0.0157015335317006
757,1022,54,0.131746395056077,0.0186923018234531
758,1022,54,0.0602273594262608,0.0323949034866865
759,1022,54,0.029251544975967,0.018097199969482
760,1022,54,0.0146639200427253,0.0253452353704128
761,1022,54,0.00836194399938964,0.0269779507133593
762,1022,54,0.014023041123064,0.021866178377966
748,1023,54,0.0089570458533608,0.0345616845960174
749,1023,54,0.0242313267719539,0.0207522697795071
750,1023,54,0.0932021057450217,0.0245822842755779
751,1023,54,0.00794995040817884,0.0183108262760357
752,1023,54,0.0407263294422828,0.0330205233844511
753,1023,54,0.015579461356527,0.0314793621728847
754,1023,54,0.0207217517357137,0.0699473563744564
755,1023,54,0.00210574502174411,0.0482337682154574
756,1023,54,0.00251773861295491,0.0421301594567788
757,1023,54,0.00253299763485161,0.034332799267567
749,1018,55,0.0944380865186542,0.0188601510643168
750,1018,55,0.00225833524071107,0.0306706340123598
751,1018,55,0.00158693827725643,0.00752269779507134
752,1018,55,0.142229343099107,0.0198977645532921
753,1018,55,0.0780651560234989,0.0098268101014725
754,1018,55,0.0671244373235676,0.0122072175173571
755,1018,55,0.0626077668421454,0.0126039520866712
756,1018,55,0.0122835126268406,0.00833142595559625
757,1018,55,0.0434882124055848,0.00781261921110857
747,1019,55,0.0585793850614176,0.00999465934233616
748,1019,55,0.00192263675898375,0.00776684214541848
749,1019,55,0.00190737773708705,0.0108339055466545
750,1019,55,0.00456244754711223,0.0167238879987793
751,1019,55,0.00323491264209964,0.0135652704661631
752,1019,55,0.00205996795605402,0.00955214770733196
753,1019,55,0.00225833524071107,0.0129091325246052
754,1019,55,0.0833142595559625,0.0127870603494316
755,1019,55,0.0180361638818952,0.00875867856870375
756,1019,55,0.0017242694743267,0.0105134660868238
757,1019,55,0.00239566643778134,0.0131532768749523
758,1019,55,0.0308384832532235,0.00729381246662089
759,1019,55,0.0117494468604562,0.0110933089188983
745,1020,55,0.021011673151751,0.0279697871366445
746,1020,55,0.00228885328450446,0.0136568245975433
747,1020,55,0.0123750667582208,0.0166475928892958
748,1020,55,0.0115815976195926,0.0192111085679408
749,1020,55,0.0127107652399481,0.0127260242618448
750,1020,55,0.00202944991226062,0.0213168535896849
751,1020,55,0.0589761196307317,0.0353246356908522
752,1020,55,0.00248722056916152,0.0191958495460441
753,1020,55,0.0138094148165103,0.0330815594720378
754,1020,55,0.0295872434576944,0.0162203402761883
755,1020,55,0.00204470893415732,0.019851987487602
756,1020,55,0.00198367284657053,0.00857557030594339
757,1020,55,0.0574044403753719,0.0164950026703288
758,1020,55,0.0222934309910735,0.0116731517509728
759,1020,55,0.0353246356908522,0.00991836423285267
760,1020,55,0.00187685969329366,0.0110780498970016
761,1020,55,0.0303196765087358,0.0085145342183566
743,1021,55,0.00709544518196384,0.00950637064164187
744,1021,55,0.0194857709620813,0.013015945677882
745,1021,55,0.0262912947280079,0.0384222171358816
746,1021,55,0.00866712443732357,0.0239108873121233
747,1021,55,0.00248722056916152,0.0275272755016403
748,1021,55,0.0278629739833677,0.0392767223620966
749,1021,55,0.0166170748455024,0.00994888227664607
750,1021,55,0.00659189745937285,0.0312046997787442
751,1021,55,0.0879530022125582,0.0240634775310903
752,1021,55,0.00195315480277714,0.024277103837644
753,1021,55,0.0217593652246891,0.0261692225528344
754,1021,55,0.00195315480277714,0.0498970016021973
755,1021,55,0.0378271152819104,0.0427557793545434
756,1021,55,0.00471503776607919,0.0416723887998779
757,1021,55,0.0361486228732738,0.00985732814526589
758,1021,55,0.0131074998092622,0.0219424734874495
759,1021,55,0.00225833524071107,0.0326085297932403
760,1021,55,0.053482871747921,0.0213321126115816
761,1021,55,0.00750743877317464,0.0128328374151217
762,1021,55,0.0623331044480049,0.0114137483787289
742,1022,55,0.00184634164950027,0.010406652933547
743,1022,55,0.00703440909437705,0.0160219729915312
744,1022,55,0.020660715648127,0.0142824444953079
745,1022,55,0.00157167925535973,0.0481422140840772
746,1022,55,0.00178530556191348,0.0299534599832151
747,1022,55,0.00788891432059205,0.011810482948043
748,1022,55,0.00665293354695964,0.019150072480354
749,1022,55,0.0194857709620813,0.012466620889601
750,1022,55,0.0116731517509728,0.0316319523918517
751,1022,55,0.0532845044632639,0.00790417334248875
752,1022,55,0.00779736018921187,0.016739147020676
753,1022,55,0.0221560997940032,0.0255436026550698
754,1022,55,0.0662088960097658,0.0342565041580835
755,1022,55,0.00190737773708705,0.00840772106507973
756,1022,55,0.00170901045243,0.0304875257495994
757,1022,55,0.00236514839398795,0.0376592660410468
758,1022,55,0.00508125429159991,0.00743114366369116
759,1022,55,0.0129549095902953,0.0188448920424201
760,1022,55,0.00137331197070268,0.014724956130312
761,1022,55,0.00180056458381018,0.0234988937209125
762,1022,55,0.0368657969024186,0.0114442664225223
746,1023,55,0.0261997405966278,0.00935378042267491
747,1023,55,0.00230411230640116,0.0291294728007935
748,1023,55,0.00181582360570687,0.0270237277790494
749,1023,55,0.0147859922178988,0.0553444724193179
750,1023,55,0.0441443503471428,0.0259403372243839
751,1023,55,0.00654612039368277,0.0251621271076524
752,1023,55,0.0260624093995575,0.031265735866331
753,1023,55,0.00199893186846723,0.0487220569161517
754,1023,55,0.00207522697795071,0.0570534828717479
755,1023,55,0.00158693827725643,0.0293736171511406
756,1023,55,0.0422827496757458,0.0342565041580835
757,1023,55,0.00529488059815366,0.0281681544213016
758,1023,55,0.0314488441290913,0.0334630350194553
753,1017,56,0.00376897840848402,0.00737010757610437
754,1017,56,0.108842603189136,0.00779736018921187
755,1017,56,0.0673075455863279,0.00845349813076982
749,1018,56,0.0280155642023346,0.00953688868543526
750,1018,56,0.0243228809033341,0.019150072480354
751,1018,56,0.0159609369039445,0.00949111161974517
752,1018,56,0.0124971389333944,0.0168764782177462
753,1018,56,0.00161745632104982,0.0101319905394064
754,1018,56,0.0185397116044862,0.0198825055313954
755,1018,56,0.0185702296482795,0.014175631342031
756,1018,56,0.0369268329900053,0.0202944991226062
757,1018,56,0.0587319752803845,0.0125429159990845
758,1018,56,0.0127870603494316,0.00758373388265812
746,1019,56,0.0111848630502785,0.00790417334248875
747,1019,56,0.0466010528725109,0.00997940032043946
748,1019,56,0.00180056458381018,0.0118562600137331
749,1019,56,0.0335393301289387,0.0125734340428779
750,1019,56,0.00500495918211643,0.0299839780270085
751,1019,56,0.00216678110933089,0.025482566567483
752,1019,56,0.00352483405813687,0.03076218814374
753,1019,56,0.0115358205539025,0.0158388647287709
754,1019,56,0.00183108262760357,0.0135500114442664
755,1019,56,0.0055390249485008,0.0362096589608606
756,1019,56,0.224261844815747,0.0438696879530022
757,1019,56,0.158724345769436,0.0117952239261463
758,1019,56,0.118852521553368,0.00952162966353857
759,1019,56,0.122713054093233,0.0208743419546807
760,1019,56,0.0474708171206226,0.0150606546120394
744,1020,56,0.0173800259403372,0.0222476539253834
745,1020,56,0.00512703135729,0.0109102006561379
746,1020,56,0.00192263675898375,0.0192263675898375
747,1020,56,0.0112153810940719,0.0320592050049592
748,1020,56,0.00202944991226062,0.0209201190203708
749,1020,56,0.0247501335164416,0.0360418097199969
750,1020,56,0.00720225833524071,0.00914015411612116
751,1020,56,0.00135805294880598,0.037094682230869
752,1020,56,0.00495918211642634,0.0358129243915465
753,1020,56,0.104844739452201,0.0215304798962387
754,1020,56,0.132860303654536,0.0360418097199969
755,1020,56,0.00718699931334401,0.0199435416189822
756,1020,56,0.0290684367132067,0.0168612191958495
757,1020,56,0.0312962539101244,0.0201266498817426
758,1020,56,0.0465247577630274,0.0174563210498207
759,1020,56,0.00366216525520714,0.00956740672922866
760,1020,56,0.108064393072404,0.0080872816052491
761,1020,56,0.073838406958114,0.00796520943007553
743,1021,56,0.0224917982757305,0.0205539024948501
744,1021,56,0.0259098191805905,0.0209658960860609
745,1021,56,0.0471656366826886,0.0233157854581521
746,1021,56,0.00451667048142214,0.0246585793850614
747,1021,56,0.0110475318532082,0.0143434805828946
748,1021,56,0.0291599908445869,0.0232394903486687
749,1021,56,0.0238345922026398,0.024628061341268
750,1021,56,0.016586556801709,0.0158999008163577
751,1021,56,0.00903334096284428,0.0228274967574578
752,1021,56,0.0197756923781186,0.0439612420843824
753,1021,56,0.0197146562905318,0.0434729533836881
754,1021,56,0.00187685969329366,0.025986114290074
755,1021,56,0.00183108262760357,0.0245059891660945
756,1021,56,0.00247196154726482,0.0247653925383383
757,1021,56,0.050766765850309,0.0120851453421836
758,1021,56,0.0753337911039902,0.0242465857938506
759,1021,56,0.00241092545967803,0.0124513618677043
760,1021,56,0.0223239490348669,0.0134431982909895
761,1021,56,0.0490882734416724,0.0118410009918364
742,1022,56,0.00570687418936446,0.0207827878233005
743,1022,56,0.110963607232776,0.0206759746700237
744,1022,56,0.00518806744487678,0.0093842984664683
745,1022,56,0.00161745632104982,0.043427176317998
746,1022,56,0.0017242694743267,0.0382543678950179
747,1022,56,0.00164797436484321,0.055741206988632
748,1022,56,0.00221255817502098,0.0173037308308537
749,1022,56,0.0185397116044862,0.0151064316777295
750,1022,56,0.00489814602883955,0.0370794232089723
751,1022,56,0.00183108262760357,0.043228809033341
752,1022,56,0.00184634164950027,0.0264591439688716
753,1022,56,0.00244144350347143,0.0242008087281605
754,1022,56,0.0230411230640116,0.0196841382467384
755,1022,56,0.00677500572213321,0.0382391088731212
756,1022,56,0.0119172961013199,0.0229495689326314
757,1022,56,0.0277561608300908,0.0250247959105821
758,1022,56,0.00167849240863661,0.0603341725795377
759,1022,56,0.0524910353246357,0.0301518272678721
760,1022,56,0.00846875715266651,0.0160219729915312
761,1022,56,0.0301365682459754,0.0146334019989319
762,1022,56,0.00181582360570687,0.0274509803921569
746,1023,56,0.0219882505531395,0.0448767833981842
747,1023,56,0.0583352407110704,0.0393377584496834
748,1023,56,0.00228885328450446,0.0353093766689555
749,1023,56,0.00154116121156634,0.0234378576333257
750,1023,56,0.039856565194171,0.0290836957351034
751,1023,56,0.00506599526970321,0.0415350576028077
752,1023,56,0.0139620050354772,0.0518043793392844
753,1023,56,0.0397802700846876,0.0592202639810788
754,1023,56,0.00219729915312428,0.0265201800564584
755,1023,56,0.00210574502174411,0.0277866788738842
756,1023,56,0.00996414129854276,0.0440527962157626
757,1023,56,0.0327000839246204,0.0209353780422675
758,1023,56,0.0464789806973373,0.0288548104066529
752,1017,57,0.0616769665064469,0.0143434805828946
753,1017,57,0.00878919661249714,0.00962844281681544
754,1017,57,0.0432135500114443,0.0156404974441138
755,1017,57,0.00587472343022812,0.0111238269626917
756,1017,57,0.0331425955596246,0.0144808117799649
748,1018,57,0.0216525520714122,0.00918593118181125
749,1018,57,0.00921644922560464,0.0187533379110399
750,1018,57,0.00138857099259937,0.039658197909514
751,1018,57,0.00209048599984741,0.0208743419546807
752,1018,57,0.00181582360570687,0.0119020370794232
753,1018,57,0.0815747310597391,0.00888075074387732
754,1018,57,0.0193484397650111,0.0246585793850614
755,1018,57,0.0377813382162203,0.019653620202945
756,1018,57,0.0627450980392157,0.0110017547875181
757,1018,57,0.144640268558785,0.00943007553215839
758,1018,57,0.0405584802014191,0.0132448310063325
746,1019,57,0.0555733577477684,0.0182650492103456
747,1019,57,0.0457770656900893,0.0231479362172885
748,1019,57,0.00199893186846723,0.0102998397802701
749,1019,57,0.0415045395590143,0.0118715190356298
750,1019,57,0.00491340505073625,0.0231174181734951
751,1019,57,0.0421454184786755,0.0166628519111925
752,1019,57,0.0268101014724956,0.0153353170061799
753,1019,57,0.0457618066681926,0.00779736018921187
754,1019,57,0.0411688410772869,0.00976577401388571
755,1019,57,0.00793469138628214,0.0151216906996262
756,1019,57,0.107866025787747,0.00790417334248875
757,1019,57,0.0059662775616083,0.00793469138628214
758,1019,57,0.0791332875562676,0.0206759746700237
759,1019,57,0.00718699931334401,0.00875867856870375
760,1019,57,0.0443884946974899,0.00868238345922026
744,1020,57,0.0167696650644694,0.0221103227283131
745,1020,57,0.0119935912108034,0.0324864576180667
746,1020,57,0.0292362859540703,0.00996414129854276
747,1020,57,0.0298771648737316,0.0258030060273136
748,1020,57,0.0748149843595026,0.029556725413901
749,1020,57,0.00532539864194705,0.0184786755168994
750,1020,57,0.0229037918669413,0.0222629129472801
751,1020,57,0.0253147173266194,0.0143282215609979
752,1020,57,0.0364538033112078,0.0163271534294652
753,1020,57,0.00181582360570687,0.0193636987869078
754,1020,57,0.00117494468604562,0.0282597085526818
755,1020,57,0.0909590295262074,0.0336003662165255
756,1020,57,0.00222781719691768,0.0101167315175097
757,1020,57,0.029907682917525,0.00759899290455482
758,1020,57,0.00166323338673991,0.00807202258335241
759,1020,57,0.00192263675898375,0.0144808117799649
760,1020,57,0.0017242694743267,0.0195925841153582
761,1020,57,0.00166323338673991,0.00814831769283589
743,1021,57,0.0100099183642329,0.0254520485236896
744,1021,57,0.0599374380102235,0.0136873426413367
745,1021,57,0.00221255817502098,0.0313115129320211
746,1021,57,0.00225833524071107,0.0397192339971008
747,1021,57,0.00419623102159152,0.0145723659113451
748,1021,57,0.0447394522011139,0.0314030670634012
749,1021,57,0.0470588235294118,0.0380102235446708
750,1021,57,0.00277714198519875,0.0346227206836042
751,1021,57,0.00207522697795071,0.0152437628747997
752,1021,57,0.0697947661554894,0.0343480582894636
753,1021,57,0.00694285496299687,0.025787747005417
754,1021,57,0.0540627145799954,0.0276035706111238
755,1021,57,0.0156404974441138,0.014023041123064
756,1021,57,0.0178988326848249,0.036743724727245
757,1021,57,0.00309758144502937,0.0328679331654841
758,1021,57,0.00230411230640116,0.0153353170061799
759,1021,57,0.00192263675898375,0.010101472495613
760,1021,57,0.00201419089036393,0.0203402761882963
761,1021,57,0.00190737773708705,0.00943007553215839
742,1022,57,0.00498970016021973,0.0295719844357977
743,1022,57,0.00883497367818723,0.0343480582894636
744,1022,57,0.00132753490501259,0.0212863355458915
745,1022,57,0.00431830319676509,0.0415808346684977
746,1022,57,0.0188448920424201,0.025284199282826
747,1022,57,0.00201419089036393,0.0105592431525139
748,1022,57,0.0390783550774395,0.0366063935301747
749,1022,57,0.00187685969329366,0.0273136491950866
750,1022,57,0.00289921416037232,0.0184176394293126
751,1022,57,0.00482185091935607,0.0623178454261082
752,1022,57,0.00134279392690929,0.0383764400701915
753,1022,57,0.00196841382467384,0.0164797436484321
754,1022,57,0.00196841382467384,0.0120698863202869
755,1022,57,0.00167849240863661,0.0153353170061799
756,1022,57,0.00411993591210803,0.03930724040589
757,1022,57,0.0306706340123598,0.0291447318226902
758,1022,57,0.108979934386206,0.0224612802319371
759,1022,57,0.0279545281147478,0.0260776684214542
760,1022,57,0.00849927519645991,0.0234683756771191
761,1022,57,0.0210421911955444,0.0210879682612345
762,1022,57,0.0558632791638056,0.0252994583047227
746,1023,57,0.0401922636758984,0.0302738994430457
747,1023,57,0.0144960708018616,0.0198977645532921
748,1023,57,0.00244144350347143,0.0546272983901732
749,1023,57,0.00231937132829786,0.0380560006103609
750,1023,57,0.00154116121156634,0.00964370183871214
751,1023,57,0.0017242694743267,0.0126497291523613
752,1023,57,0.00166323338673991,0.012970168612192
753,1023,57,0.0120088502327001,0.029556725413901
754,1023,57,0.0152132448310063,0.0355687800411994
755,1023,57,0.00154116121156634,0.0329289692530709
756,1023,57,0.00910963607232776,0.0448157473105974
757,1023,57,0.00721751735713741,0.0190890363927672
752,1017,58,0.0252689402609293,0.00779736018921187
753,1017,58,0.032822156099794,0.0129243915465019
754,1017,58,0.0221103227283131,0.0126802471961547
755,1017,58,0.00190737773708705,0.00807202258335241
756,1017,58,0.0325017166399634,0.0281376363775082
748,1018,58,0.0604715037766079,0.0274052033264668
749,1018,58,0.0352635996032654,0.0110322728313115
750,1018,58,0.0412451361867704,0.0239871824216068
751,1018,58,0.00155642023346304,0.0080872816052491
752,1018,58,0.0638742656595712,0.00822461280231937
753,1018,58,0.118623636224918,0.0196231021591516
754,1018,58,0.0380560006103609,0.0167544060425727
755,1018,58,0.0233157854581521,0.0136415655756466
756,1018,58,0.00158693827725643,0.0186007476920729
757,1018,58,0.0051117723353933,0.0156099794003204
758,1018,58,0.00718699931334401,0.00744640268558785
745,1019,58,0.0213778896772717,0.00881971465629053
746,1019,58,0.0894026092927443,0.0181887541008621
747,1019,58,0.0605630579079881,0.0114747844663157
748,1019,58,0.0469520103761349,0.010757610437171
749,1019,58,0.0540932326237888,0.0265659571221485
750,1019,58,0.00184634164950027,0.0206301976043336
751,1019,58,0.00167849240863661,0.0292820630197604
752,1019,58,0.00173952849622339,0.027847714961471
753,1019,58,0.0297093156328679,0.0202029449912261
754,1019,58,0.00231937132829786,0.0216067750057221
755,1019,58,0.00845349813076982,0.0248111696040284
756,1019,58,0.0402532997634852,0.00785839627679866
757,1019,58,0.102983138780804,0.0197756923781186
758,1019,58,0.00187685969329366,0.0150148775463493
759,1019,58,0.00158693827725643,0.0141145952544442
743,1020,58,0.0102998397802701,0.0137331197070268
744,1020,58,0.0364080262455177,0.0361943999389639
745,1020,58,0.0021362630655375,0.0229953459983215
746,1020,58,0.0142214084077211,0.0106507972838941
747,1020,58,0.0154879072251469,0.0156862745098039
748,1020,58,0.0435950255588617,0.02392614633402
749,1020,58,0.0280918593118181,0.0231021591515984
750,1020,58,0.0510261692225528,0.00961318379491875
751,1020,58,0.0983749141680018,0.0248874647135119
752,1020,58,0.0347753109025711,0.0272373540856031
753,1020,58,0.0677653162432288,0.0431067368581674
754,1020,58,0.06665140764477,0.0209658960860609
755,1020,58,0.0221255817502098,0.0160982681010147
756,1020,58,0.10775921263447,0.00820935378042268
757,1020,58,0.0401770046540017,0.00819409475852598
758,1020,58,0.0448615243762875,0.0134584573128862
759,1020,58,0.00236514839398795,0.0109102006561379
760,1020,58,0.0025482566567483,0.0159304188601511
761,1020,58,0.0220950637064164,0.00999465934233616
742,1021,58,0.0418554970626383,0.0165255207141222
743,1021,58,0.00225833524071107,0.0112001220721752
744,1021,58,0.00175478751812009,0.0361181048294804
745,1021,58,0.00209048599984741,0.0140535591668574
746,1021,58,0.00814831769283589,0.0439612420843824
747,1021,58,0.0166475928892958,0.0157625696192874
748,1021,58,0.0348973830777447,0.0116578927290761
749,1021,58,0.00186160067139696,0.024780651560235
750,1021,58,0.0059662775616083,0.0164950026703288
751,1021,58,0.00892652780956741,0.0388494697489891
752,1021,58,0.0242465857938506,0.0289921416037232
753,1021,58,0.0262760357061112,0.0265049210345617
754,1021,58,0.00224307621881437,0.0264438849469749
755,1021,58,0.00195315480277714,0.0216220340276188
756,1021,58,0.0590218966964218,0.0350194552529183
757,1021,58,0.00421149004348821,0.0318913557640955
758,1021,58,0.00199893186846723,0.0213168535896849
759,1021,58,0.0104371709773404,0.0205386434729534
760,1021,58,0.0467231250476844,0.0251163500419623
761,1021,58,0.0318608377203021,0.0198367284657053
741,1022,58,0.00219729915312428,0.0120393682764935
742,1022,58,0.0386968795300221,0.0206149385824369
743,1022,58,0.0110627908751049,0.019501029983978
744,1022,58,0.0110475318532082,0.0555733577477684
745,1022,58,0.0156099794003204,0.0244449530785077
746,1022,58,0.0021362630655375,0.0298008697642481
747,1022,58,0.0104982070649271,0.0195162890058747
748,1022,58,0.125307087815671,0.0439765011062791
749,1022,58,0.00915541313801785,0.0328068970778973
750,1022,58,0.0103761348897536,0.0111238269626917
751,1022,58,0.0627450980392157,0.0232394903486687
752,1022,58,0.0183260852979324,0.0453345540550851
753,1022,58,0.02050812542916,0.0381170366979477
754,1022,58,0.0425116350041962,0.0209811551079576
755,1022,58,0.012817578393225,0.0240482185091936
756,1022,58,0.0109407186999313,0.055741206988632
757,1022,58,0.00164797436484321,0.0126039520866712
758,1022,58,0.0560311284046693,0.0145418478675517
759,1022,58,0.0737621118486305,0.0344243533989471
760,1022,58,0.0476844434271763,0.0412909132524605
761,1022,58,0.00161745632104982,0.0140840772106508
745,1023,58,0.0223239490348669,0.0231021591515984
746,1023,58,0.0225223163195239,0.0392919813839933
747,1023,58,0.0367742427710384,0.0371404592965591
748,1023,58,0.0165560387579156,0.0303196765087358
749,1023,58,0.00163271534294652,0.0242618448157473
750,1023,58,0.0368352788586252,0.0251773861295491
751,1023,58,0.00177004654001678,0.00920119020370794
752,1023,58,0.0203402761882963,0.0418402380407416
753,1023,58,0.00138857099259937,0.0124361028458076
754,1023,58,0.0321660181582361,0.0199740596627756
755,1023,58,0.00218204013122759,0.0129549095902953
756,1023,58,0.0699626153963531,0.024078736552987
752,1017,59,0.00250247959105821,0.00741588464179446
753,1017,59,0.036392767223621,0.00834668497749294
754,1017,59,0.0753337911039902,0.0105287251087205
755,1017,59,0.11284046692607,0.0214541847867552
747,1018,59,0.0621042191195544,0.00906385900663768
748,1018,59,0.0344243533989471,0.0166475928892958
749,1018,59,0.00442511635004196,0.00759899290455482
750,1018,59,0.107209887846189,0.0263523308155947
751,1018,59,0.00265506981002518,0.0126192111085679
752,1018,59,0.0404516670481422,0.00904859998474098
753,1018,59,0.00175478751812009,0.0081025406271458
754,1018,59,0.00192263675898375,0.0076752880140383
755,1018,59,0.00759899290455482,0.0123445487144274
756,1018,59,0.00968947890440223,0.00860608834973678
757,1018,59,0.00192263675898375,0.0085297932402533
744,1019,59,0.00222781719691768,0.0154421301594568
745,1019,59,0.0021210040436408,0.0131074998092622
746,1019,59,0.0312046997787442,0.00730907148851759
747,1019,59,0.0222018768596933,0.00798046845197223
748,1019,59,0.0571297779812314,0.0187380788891432
749,1019,59,0.00224307621881437,0.0286869611657893
750,1019,59,0.00164797436484321,0.0133669031815061
751,1019,59,0.0017242694743267,0.0129243915465019
752,1019,59,0.0155031662470436,0.00877393759060044
753,1019,59,0.0149843595025559,0.00994888227664607
754,1019,59,0.00827038986800946,0.0201266498817426
755,1019,59,0.0445868619821469,0.00978103303578241
756,1019,59,0.00323491264209964,0.0173037308308537
757,1019,59,0.0468146791790646,0.0153658350499733
758,1019,59,0.00544747081712062,0.0093690394445716
759,1019,59,0.0179598687724117,0.00813305867093919
742,1020,59,0.0063935301747158,0.00784313725490196
743,1020,59,0.00675974670023652,0.0178072785534447
744,1020,59,0.0272831311512932,0.0251010910200656
745,1020,59,0.013870450904097,0.0177462424658579
746,1020,59,0.030106050202182,0.0432440680552377
747,1020,59,0.00151064316777295,0.023071641107805
748,1020,59,0.00207522697795071,0.0271763179980163
749,1020,59,0.00268558785381857,0.0321355001144427
750,1020,59,0.0254062714579995,0.0152437628747997
751,1020,59,0.0234531166552224,0.0237125200274662
752,1020,59,0.0127107652399481,0.011306935225452
753,1020,59,0.0431525139238575,0.0128938735027085
754,1020,59,0.0416266117341878,0.0255283436331731
755,1020,59,0.00459296559090562,0.016739147020676
756,1020,59,0.00160219729915312,0.0238498512245365
757,1020,59,0.00144960708018616,0.00854505226215
758,1020,59,0.0216525520714122,0.0377813382162203
759,1020,59,0.0411535820553902,0.0219882505531395
760,1020,59,0.00709544518196384,0.0211642633707179
741,1021,59,0.0385290302891585,0.0196231021591516
742,1021,59,0.00221255817502098,0.0112001220721752
743,1021,59,0.0114900434882124,0.01538109407187
744,1021,59,0.0275883115892271,0.0249027237354086
745,1021,59,0.00399786373693446,0.0361181048294804
746,1021,59,0.00207522697795071,0.0342107270923934
747,1021,59,0.0462500953688869,0.0127718013275349
748,1021,59,0.067200732433051,0.0174868390936141
749,1021,59,0.0256198977645533,0.0365300984206912
750,1021,59,0.0470893415732052,0.0227969787136645
751,1021,59,0.0161593041886015,0.0305485618371862
752,1021,59,0.0550545510032807,0.0328526741435874
753,1021,59,0.0648966201266499,0.0364690623331045
754,1021,59,0.019806210421912,0.0183108262760357
755,1021,59,0.024628061341268,0.0300755321583886
756,1021,59,0.00187685969329366,0.0145113298237583
757,1021,59,0.0220187685969329,0.0213473716334783
758,1021,59,0.0482642862592508,0.0124055848020142
759,1021,59,0.0112458991378653,0.0121919584954604
760,1021,59,0.0273746852826734,0.015884641794461
741,1022,59,0.0741435873960479,0.0323033493553063
742,1022,59,0.00227359426260777,0.0108949416342412
743,1022,59,0.0012664988174258,0.00776684214541848
744,1022,59,0.0451209277485313,0.0413214312962539
745,1022,59,0.0346074616617075,0.0416113527122911
746,1022,59,0.00242618448157473,0.0111543450064851
747,1022,59,0.020660715648127,0.0191042954146639
748,1022,59,0.00158693827725643,0.0254062714579995
749,1022,59,0.0829022659647517,0.0309300373846036
750,1022,59,0.067353322652018,0.0393835355153735
751,1022,59,0.0127260242618448,0.0353704127565423
752,1022,59,0.00837720302128634,0.0355077439536126
753,1022,59,0.019302662699321,0.0469672693980316
754,1022,59,0.00436408026245518,0.0300755321583886
755,1022,59,0.080872816052491,0.0276035706111238
756,1022,59,0.0272220950637064,0.0217288471808957
757,1022,59,0.00175478751812009,0.0135500114442664
758,1022,59,0.0416418707560845,0.0175631342030976
759,1022,59,0.0119325551232166,0.0116273746852827
760,1022,59,0.0999008163576715,0.0102693217364767
745,1023,59,0.00650034332799268,0.0224460212100404
746,1023,59,0.0644998855573358,0.0438696879530022
747,1023,59,0.014023041123064,0.0315861753261616
748,1023,59,0.00218204013122759,0.0231326771953918
749,1023,59,0.0110170138094148,0.030106050202182
750,1023,59,0.00952162966353857,0.0148317692835889
751,1023,59,0.00273136491950866,0.0135500114442664
752,1023,59,0.0852216372930495,0.0216678110933089
753,1023,59,0.00192263675898375,0.0308995193408103
754,1023,59,0.00132753490501259,0.0373083085374228
755,1023,59,0.00177004654001678,0.0330357824063478
752,1017,60,0.00454718852521553,0.0183566033417258
753,1017,60,0.00587472343022812,0.0122377355611505
754,1017,60,0.0190585183489738,0.0221866178377966
746,1018,60,0.0255130846112764,0.0164034485389487
747,1018,60,0.0193331807431144,0.0102845807583734
748,1018,60,0.00523384451056687,0.0219729915312428
749,1018,60,0.0113984893568322,0.0272983901731899
750,1018,60,0.0207370107576104,0.0209964141298543
751,1018,60,0.0397650110627909,0.0159304188601511
752,1018,60,0.0538033112077516,0.00782787823300526
753,1018,60,0.050415808346685,0.0146181429770352
754,1018,60,0.0021515220874342,0.0294956893263142
755,1018,60,0.0381475547417411,0.0257572289616236
756,1018,60,0.0246128023193713,0.0180361638818952
744,1019,60,0.0186923018234531,0.0164644846265354
745,1019,60,0.0279545281147478,0.0294804303044175
746,1019,60,0.0139772640573739,0.0260166323338674
747,1019,60,0.00180056458381018,0.0369726100556954
748,1019,60,0.0247653925383383,0.0202487220569162
749,1019,60,0.0296025024795911,0.0188448920424201
750,1019,60,0.0146181429770352,0.028702220187686
751,1019,60,0.0272373540856031,0.0315251392385748
752,1019,60,0.0125429159990845,0.018951705195697
753,1019,60,0.0510109102006561,0.0226138704509041
754,1019,60,0.00233463035019455,0.0160372320134279
755,1019,60,0.00344853894865339,0.00785839627679866
756,1019,60,0.0435034714274815,0.0129549095902953
757,1019,60,0.0252231631952392,0.00758373388265812
758,1019,60,0.0192721446555276,0.0126039520866712
742,1020,60,0.0107423514152743,0.0265964751659419
743,1020,60,0.00247196154726482,0.00975051499198901
744,1020,60,0.0386663614862287,0.0183718623636225
745,1020,60,0.0016937514305333,0.0332799267566949
746,1020,60,0.0287632562752728,0.0248111696040284
747,1020,60,0.0122529945830472,0.023270008392462
748,1020,60,0.00366216525520714,0.0267032883192187
749,1020,60,0.0823224231326772,0.0295414663920043
750,1020,60,0.0141603723201343,0.0301823453116655
751,1020,60,0.0554665445944915,0.0473640039673457
752,1020,60,0.00370794232089723,0.0231479362172885
753,1020,60,0.00216678110933089,0.0251163500419623
754,1020,60,0.0573281452658885,0.0244449530785077
755,1020,60,0.0158999008163577,0.0225986114290074
756,1020,60,0.0362096589608606,0.0107270923933776
757,1020,60,0.00692759594110018,0.0192874036774243
758,1020,60,0.00198367284657053,0.0357061112382696
759,1020,60,0.00389105058365759,0.0131074998092622
741,1021,60,0.010605020218204,0.022415503166247
742,1021,60,0.0441138323033494,0.0166628519111925
743,1021,60,0.0213473716334783,0.0135805294880598
744,1021,60,0.0455481803616388,0.0252231631952392
745,1021,60,0.00439459830624857,0.0217746242465858
746,1021,60,0.0021515220874342,0.0176852063782712
747,1021,60,0.016235599298085,0.0244907301441978
748,1021,60,0.0356145571068894,0.0148470283054856
749,1021,60,0.0376287479972534,0.0261844815747311
750,1021,60,0.00799572747386892,0.0158083466849775
751,1021,60,0.00195315480277714,0.0412451361867704
752,1021,60,0.00697337300679027,0.0194399938963912
753,1021,60,0.0422674906538491,0.0180819409475853
754,1021,60,0.0375066758220798,0.0231479362172885
755,1021,60,0.0195620660715648,0.0147707331960021
756,1021,60,0.0686045624475471,0.0169069962615396
757,1021,60,0.00741588464179446,0.0169527733272297
758,1021,60,0.00933852140077821,0.0221408407721065
759,1021,60,0.00192263675898375,0.0170290684367132
760,1021,60,0.0246738384069581,0.0245059891660945
740,1022,60,0.0111848630502785,0.0638437476157778
741,1022,60,0.0219882505531395,0.0180666819256886
742,1022,60,0.00729381246662089,0.0262455176623178
743,1022,60,0.00210574502174411,0.0199740596627756
744,1022,60,0.0146181429770352,0.0385748073548486
745,1022,60,0.0258945601586938,0.0508583199816892
746,1022,60,0.012115663385977,0.0392462043183032
747,1022,60,0.0893263141832609,0.0127107652399481
748,1022,60,0.0742504005493248,0.00784313725490196
749,1022,60,0.0268711375600824,0.0407110704203861
750,1022,60,0.0268253604943923,0.0206759746700237
751,1022,60,0.00260929274433509,0.0241550316624704
752,1022,60,0.0178377965972381,0.0538643472953384
753,1022,60,0.0282749675745785,0.0152132448310063
754,1022,60,0.110109102006561,0.0228274967574578
755,1022,60,0.0189669642175937,0.0251926451514458
756,1022,60,0.00837720302128634,0.0138551918822004
757,1022,60,0.00442511635004196,0.0226901655603876
758,1022,60,0.00187685969329366,0.0512245365072099
759,1022,60,0.0385442893110552,0.0119172961013199
760,1022,60,0.0690470740825513,0.0422064545662623
744,1023,60,0.00222781719691768,0.0268558785381857
745,1023,60,0.0142519264515145,0.054184786755169
746,1023,60,0.0081177996490425,0.0307316700999466
747,1023,60,0.00181582360570687,0.0414740215152209
748,1023,60,0.00192263675898375,0.0143434805828946
749,1023,60,0.0395971618219272,0.0352025635156786
750,1023,60,0.00837720302128634,0.0236362249179828
751,1023,60,0.0261234454871443,0.0158693827725643
752,1023,60,0.00198367284657053,0.0568245975432975
753,1023,60,0.0262149996185245,0.0147402151522087
754,1023,60,0.0192416266117342,0.0267490653849088
755,1023,60,0.0225986114290074,0.0196841382467384
752,1017,61,0.0055542839703975,0.00730907148851759
746,1018,61,0.0286106660563058,0.0170901045243
747,1018,61,0.0591134508278019,0.00856031128404669
748,1018,61,0.0547341115434501,0.0100251773861295
749,1018,61,0.040665293354696,0.00819409475852598
750,1018,61,0.0108796826123445,0.0341039139391165
751,1018,61,0.0113679713130388,0.0111238269626917
752,1018,61,0.00541695277332723,0.0310063324940871
753,1018,61,0.0954909590295262,0.0238040741588464
754,1018,61,0.0204623483634699,0.00788891432059205
755,1018,61,0.0802166781109331,0.00737010757610437
756,1018,61,0.00306706340123598,0.0131990539406424
743,1019,61,0.00216678110933089,0.0108796826123445
744,1019,61,0.00654612039368277,0.0406805523765927
745,1019,61,0.0196231021591516,0.0348973830777447
746,1019,61,0.00302128633554589,0.0246738384069581
747,1019,61,0.0155947203784237,0.0149996185244526
748,1019,61,0.0171663996337835,0.0336156252384222
749,1019,61,0.04272526131075,0.0255436026550698
750,1019,61,0.0704051270313573,0.0309758144502937
751,1019,61,0.00216678110933089,0.0228427557793545
752,1019,61,0.023422598611429,0.0303349355306325
753,1019,61,0.00611886778057527,0.0114747844663157
754,1019,61,0.101350423437858,0.00727855344472419
755,1019,61,0.0811474784466316,0.00773632410162509
756,1019,61,0.00840772106507973,0.0125429159990845
757,1019,61,0.0527351796749828,0.00943007553215839
742,1020,61,0.0295719844357977,0.0442053864347295
743,1020,61,0.0147707331960021,0.0165560387579156
744,1020,61,0.00201419089036393,0.0335698481727321
745,1020,61,0.00283817807278553,0.0138857099259937
746,1020,61,0.0294804303044175,0.0333867399099718
747,1020,61,0.0761730373083085,0.00971999694819562
748,1020,61,0.00758373388265812,0.0118867780575265
749,1020,61,0.0133669031815061,0.0338445105668727
750,1020,61,0.00205996795605402,0.0188448920424201
751,1020,61,0.00727855344472419,0.0399633783474479
752,1020,61,0.00833142595559625,0.0304264896620127
753,1020,61,0.00210574502174411,0.0136873426413367
754,1020,61,0.0370336461432822,0.0367284657053483
755,1020,61,0.0189669642175937,0.0529182879377432
756,1020,61,0.00898756389715419,0.00886549172198062
757,1020,61,0.0316777294575418,0.012161440451667
758,1020,61,0.00183108262760357,0.0156252384222171
741,1021,61,0.0493781948577096,0.0309758144502937
742,1021,61,0.0197909514000153,0.0404516670481422
743,1021,61,0.0886091401541161,0.0324864576180667
744,1021,61,0.00225833524071107,0.045487144274052
745,1021,61,0.00216678110933089,0.0445868619821469
746,1021,61,0.0965438315403983,0.0243991760128176
747,1021,61,0.021011673151751,0.0188143739986267
748,1021,61,0.028046082246128,0.0206454566262303
749,1021,61,0.00177004654001678,0.0125276569771878
750,1021,61,0.015884641794461,0.0451972228580148
751,1021,61,0.032669565880827,0.044632639047837
752,1021,61,0.00170901045243,0.0273289082169833
753,1021,61,0.00846875715266651,0.0262760357061112
754,1021,61,0.00544747081712062,0.038605325398642
755,1021,61,0.00288395513847562,0.0420386053253986
756,1021,61,0.00177004654001678,0.0332799267566949
757,1021,61,0.00485236896314946,0.0203402761882963
758,1021,61,0.00442511635004196,0.00764476997024491
759,1021,61,0.0483253223468376,0.00756847486076143
740,1022,61,0.0218966964217594,0.0236057068741894
741,1022,61,0.0136110475318532,0.00749217975127794
742,1022,61,0.0826276035706111,0.0140535591668574
743,1022,61,0.0815747310597391,0.0402685587853819
744,1022,61,0.06152437628748,0.0242313267719539
745,1022,61,0.0265201800564584,0.016083009079118
746,1022,61,0.0119478141451133,0.0148470283054856
747,1022,61,0.00230411230640116,0.0350957503624018
748,1022,61,0.00886549172198062,0.0261844815747311
749,1022,61,0.00370794232089723,0.0265354390783551
750,1022,61,0.00141908903639277,0.0307774471656367
751,1022,61,0.0114442664225223,0.0233005264362554
752,1022,61,0.0533150225070573,0.0688029297322042
753,1022,61,0.0223239490348669,0.0220492866407263
754,1022,61,0.0982070649271382,0.0251163500419623
755,1022,61,0.0693675135423819,0.0230258640421149
756,1022,61,0.063080796520943,0.02221713588159
757,1022,61,0.0231937132829786,0.0259403372243839
758,1022,61,0.0176852063782712,0.0247043564507515
759,1022,61,0.00180056458381018,0.0105134660868238
744,1023,61,0.00535591668574044,0.0265659571221485
745,1023,61,0.00282291905088884,0.0194399938963912
746,1023,61,0.0211642633707179,0.0197909514000153
747,1023,61,0.00306706340123598,0.0206759746700237
748,1023,61,0.00309758144502937,0.0205233844510567
749,1023,61,0.018295567254139,0.0360265506981002
750,1023,61,0.00694285496299687,0.0251773861295491
751,1023,61,0.0025482566567483,0.0266269932097353
752,1023,61,0.0550240329594873,0.0106202792401007
753,1023,61,0.0261234454871443,0.00955214770733196
754,1023,61,0.00178530556191348,0.0382391088731212
752,1017,62,0.00227359426260777,0.00840772106507973
746,1018,62,0.0390478370336461,0.0233310444800488
747,1018,62,0.00195315480277714,0.0156099794003204
748,1018,62,0.00161745632104982,0.0465094987411307
749,1018,62,0.0299382009613184,0.0208896009765774
750,1018,62,0.0884718089570459,0.0328374151216907
751,1018,62,0.00605783169298848,0.00923170824750134
752,1018,62,0.010757610437171,0.0283817807278553
753,1018,62,0.0753337911039902,0.00923170824750134
754,1018,62,0.00955214770733196,0.0184634164950027
755,1018,62,0.00202944991226062,0.0131990539406424
743,1019,62,0.00326543068589303,0.00840772106507973
744,1019,62,0.00253299763485161,0.0296025024795911
745,1019,62,0.0345769436179141,0.0205233844510567
746,1019,62,0.0059510185397116,0.026489662012665
747,1019,62,0.0174258030060273,0.0374151216906996
748,1019,62,0.0240024414435035,0.0190585183489738
749,1019,62,0.0311741817349508,0.00907911802853437
750,1019,62,0.00204470893415732,0.0134889753566796
751,1019,62,0.0259250782024872,0.0254215304798962
752,1019,62,0.0678110933089189,0.0397192339971008
753,1019,62,0.0250095368886854,0.0227359426260777
754,1019,62,0.00158693827725643,0.00749217975127794
755,1019,62,0.0063935301747158,0.0118410009918364
756,1019,62,0.0307164110780499,0.0228885328450446
757,1019,62,0.024933241779202,0.00859082932784009
742,1020,62,0.00234988937209125,0.0142061493858244
743,1020,62,0.00199893186846723,0.0386816205081254
744,1020,62,0.0209506370641642,0.0250095368886854
745,1020,62,0.0528877698939498,0.0290226596475166
746,1020,62,0.0195315480277714,0.0305638208590829
747,1020,62,0.0017242694743267,0.0211642633707179
748,1020,62,0.00196841382467384,0.0228732738231479
749,1020,62,0.00228885328450446,0.01879911497673
750,1020,62,0.00199893186846723,0.0400701915007248
751,1020,62,0.00207522697795071,0.0284885938811322
752,1020,62,0.0102845807583734,0.0448615243762875
753,1020,62,0.0881818875410086,0.0191653315022507
754,1020,62,0.0489967193102922,0.0165560387579156
755,1020,62,0.0104676890211337,0.013168535896849
756,1020,62,0.030411230640116,0.0122072175173571
757,1020,62,0.0146486610208286,0.0253299763485161
758,1020,62,0.00227359426260777,0.0076752880140383
741,1021,62,0.0582589456015869,0.00755321583886473
742,1021,62,0.0165407797360189,0.0190585183489738
743,1021,62,0.0154421301594568,0.0251163500419623
744,1021,62,0.00683604180972,0.0340123598077363
745,1021,62,0.00225833524071107,0.0296787975890745
746,1021,62,0.0375371938658732,0.0450904097047379
747,1021,62,0.0284428168154421,0.0187685969329366
748,1021,62,0.010452429999237,0.0323491264209964
749,1021,62,0.0147859922178988,0.0219424734874495
750,1021,62,0.0278782330052644,0.0250858319981689
751,1021,62,0.00155642023346304,0.0293278400854505
752,1021,62,0.0321965362020294,0.0468299382009613
753,1021,62,0.0234988937209125,0.0544594491493095
754,1021,62,0.0531471732661936,0.0292668039978637
755,1021,62,0.00302128633554589,0.0270847638666361
756,1021,62,0.0404516670481422,0.0214236667429618
757,1021,62,0.0163576714732586,0.0380560006103609
758,1021,62,0.0295262073701076,0.0216067750057221
759,1021,62,0.00151064316777295,0.0310368505378805
740,1022,62,0.0131532768749523,0.021866178377966
741,1022,62,0.00762951094834821,0.0368657969024186
742,1022,62,0.0034332799267567,0.0377813382162203
743,1022,62,0.00196841382467384,0.0246433203631647
744,1022,62,0.00175478751812009,0.00755321583886473
745,1022,62,0.00209048599984741,0.00782787823300526
746,1022,62,0.00921644922560464,0.0248111696040284
747,1022,62,0.00816357671473259,0.0133669031815061
748,1022,62,0.00186160067139696,0.0194094758525978
749,1022,62,0.00199893186846723,0.023422598611429
750,1022,62,0.018646524757763,0.0158541237506676
751,1022,62,0.00219729915312428,0.0515297169451438
752,1022,62,0.00135805294880598,0.0420386053253986
753,1022,62,0.00225833524071107,0.0112916762035554
754,1022,62,0.0016937514305333,0.0192721446555276
755,1022,62,0.0305638208590829,0.0225223163195239
756,1022,62,0.0130769817654688,0.0111696040283818
757,1022,62,0.0109864957656214,0.023575188830396
758,1022,62,0.0531166552224002,0.0316014343480583
759,1022,62,0.0339513237201495,0.0264133669031815
744,1023,62,0.0717479209582666,0.010452429999237
745,1023,62,0.00166323338673991,0.0379797055008774
746,1023,62,0.00479133287556268,0.0352025635156786
747,1023,62,0.00253299763485161,0.026688029297322
748,1023,62,0.0195162890058747,0.0267948424505989
749,1023,62,0.0404669260700389,0.0358129243915465
750,1023,62,0.0446936751354238,0.02905317769131
751,1023,62,0.012970168612192,0.0214389257648585
752,1023,62,0.00563057907988098,0.0419928282597086
753,1023,62,0.00688181887541009,0.0426337071793698
754,1023,62,0.00160219729915312,0.0369726100556954
746,1018,63,0.00558480201419089,0.0104219119554437
747,1018,63,0.040009155413138,0.0233615625238422
748,1018,63,0.00173952849622339,0.0167238879987793
749,1018,63,0.0197756923781186,0.00758373388265812
750,1018,63,0.0576943617914092,0.0102082856488899
751,1018,63,0.0904402227817197,0.0130922407873655
752,1018,63,0.0224612802319371,0.0117036697947662
753,1018,63,0.0272831311512932,0.0076752880140383
754,1018,63,0.0144655527580682,0.0191653315022507
755,1018,63,0.00190737773708705,0.00833142595559625
744,1019,63,0.00361638818951705,0.0281376363775082
745,1019,63,0.00526436255436027,0.0118715190356298
746,1019,63,0.0302738994430457,0.013519493400473
747,1019,63,0.00239566643778134,0.0257572289616236
748,1019,63,0.00146486610208286,0.0175020981155108
749,1019,63,0.00157167925535973,0.0164797436484321
750,1019,63,0.00170901045243,0.00737010757610437
751,1019,63,0.0392309452964065,0.0100251773861295
752,1019,63,0.00250247959105821,0.0424658579385061
753,1019,63,0.00756847486076143,0.0133058670939193
754,1019,63,0.0366369115739681,0.00965896086060884
755,1019,63,0.0170901045243,0.0080872816052491
756,1019,63,0.0063782711528191,0.0130922407873655
757,1019,63,0.0415045395590143,0.0358281834134432
742,1020,63,0.00201419089036393,0.0106507972838941
743,1020,63,0.0599984740978103,0.0124513618677043
744,1020,63,0.0627450980392157,0.0156557564660105
745,1020,63,0.0161745632104982,0.0307927061875334
746,1020,63,0.019501029983978,0.0221103227283131
747,1020,63,0.00236514839398795,0.0296025024795911
748,1020,63,0.00250247959105821,0.0367284657053483
749,1020,63,0.00227359426260777,0.010757610437171
750,1020,63,0.00198367284657053,0.0162050812542916
751,1020,63,0.0401770046540017,0.013870450904097
752,1020,63,0.0250095368886854,0.0167238879987793
753,1020,63,0.0252231631952392,0.00898756389715419
754,1020,63,0.0012664988174258,0.0162966353856718
755,1020,63,0.00178530556191348,0.0205539024948501
756,1020,63,0.0093690394445716,0.0289463645380331
757,1020,63,0.00608834973678187,0.0247959105821317
758,1020,63,0.00205996795605402,0.0158083466849775
741,1021,63,0.0769207293812467,0.0172579537651637
742,1021,63,0.104493781948577,0.0206912336919203
743,1021,63,0.00668345159075303,0.026993209735256
744,1021,63,0.0116731517509728,0.0326848249027237
745,1021,63,0.0482642862592508,0.0177767605096513
746,1021,63,0.0370031280994888,0.0101777676050965
747,1021,63,0.00157167925535973,0.028351262684062
748,1021,63,0.00164797436484321,0.0182345311665522
749,1021,63,0.00238040741588464,0.0076600289921416
750,1021,63,0.0210574502174411,0.0366674296177615
751,1021,63,0.021210040436408,0.0349431601434348
752,1021,63,0.0186160067139696,0.0276188296330205
753,1021,63,0.0170443274586099,0.0255130846112764
754,1021,63,0.026993209735256,0.0255588616769665
755,1021,63,0.0242465857938506,0.0242465857938506
756,1021,63,0.00149538414587625,0.00987258716716258
757,1021,63,0.00207522697795071,0.0269169146257725
758,1021,63,0.00222781719691768,0.0085297932402533
740,1022,63,0.00221255817502098,0.0253910124361028
741,1022,63,0.0315403982604715,0.022720683604181
742,1022,63,0.0175173571374075,0.0203097581445029
743,1022,63,0.0348058289463645,0.0257724879835203
744,1022,63,0.0034027618829633,0.0384832532234684
745,1022,63,0.00660715648126955,0.0458686198214694
746,1022,63,0.0444037537193866,0.0117952239261463
747,1022,63,0.032318608377203,0.0123598077363241
748,1022,63,0.00245670252536812,0.0187838559548333
749,1022,63,0.00167849240863661,0.0420538643472953
750,1022,63,0.00164797436484321,0.0286717021438926
751,1022,63,0.0273746852826734,0.0325474937056535
752,1022,63,0.0143892576485847,0.0291294728007935
753,1022,63,0.0583352407110704,0.0630045014114595
754,1022,63,0.00697337300679027,0.0248874647135119
755,1022,63,0.0330052643625544,0.0376745250629435
756,1022,63,0.0533607995727474,0.0295262073701076
757,1022,63,0.0385595483329519,0.0159304188601511
758,1022,63,0.0021210040436408,0.022415503166247
759,1022,63,0.00201419089036393,0.0238193331807431
744,1023,63,0.00195315480277714,0.0274814984359503
745,1023,63,0.00965896086060884,0.0238193331807431
746,1023,63,0.0861219195849546,0.0228274967574578
747,1023,63,0.0421454184786755,0.0327763790341039
748,1023,63,0.0486610208285649,0.037247272449836
749,1023,63,0.00807202258335241,0.0158541237506676
750,1023,63,0.00793469138628214,0.0337682154573892
751,1023,63,0.0132600900282292,0.0503700312809949
752,1023,63,0.0184023804074159,0.0595559624628061
753,1023,63,0.0114900434882124,0.0364080262455177
746,1018,64,0.00192263675898375,0.0162813763637751
747,1018,64,0.0125734340428779,0.0153505760280766
748,1018,64,0.00175478751812009,0.00793469138628214
749,1018,64,0.00166323338673991,0.0141298542763409
750,1018,64,0.0462043183031968,0.00988784618905928
751,1018,64,0.00183108262760357,0.00846875715266651
752,1018,64,0.00221255817502098,0.0109712367437247
753,1018,64,0.0559243152513924,0.0108796826123445
754,1018,64,0.00218204013122759,0.00781261921110857
755,1018,64,0.00201419089036393,0.0138857099259937
744,1019,64,0.0156252384222171,0.0216678110933089
745,1019,64,0.0235904478522927,0.0179598687724117
746,1019,64,0.00732433051041428,0.0136263065537499
747,1019,64,0.00753795681696803,0.0233463035019455
748,1019,64,0.0269779507133593,0.028046082246128
749,1019,64,0.00204470893415732,0.0170595864805066
750,1019,64,0.0140688181887541,0.0223239490348669
751,1019,64,0.0475165941863127,0.0132143129625391
752,1019,64,0.0128633554589151,0.0336308842603189
753,1019,64,0.0142061493858244,0.0436408026245518
754,1019,64,0.00164797436484321,0.0131532768749523
755,1019,64,0.043274586099031,0.00793469138628214
756,1019,64,0.0514991989013504,0.0188601510643168
757,1019,64,0.0115510795757992,0.00912489509422446
742,1020,64,0.0748149843595026,0.0405432211795224
743,1020,64,0.0175326161593042,0.0361943999389639
744,1020,64,0.0547341115434501,0.0264744029907683
745,1020,64,0.00900282291905089,0.0107270923933776
746,1020,64,0.0290836957351034,0.0380407415884642
747,1020,64,0.0358129243915465,0.0220340276188296
748,1020,64,0.00410467689021134,0.0401159685664149
749,1020,64,0.00671396963454643,0.0435492484931716
750,1020,64,0.0182345311665522,0.0245670252536812
751,1020,64,0.0114747844663157,0.0175478751812009
752,1020,64,0.020706492713817,0.0243381399252308
753,1020,64,0.034378576333257,0.0198367284657053
754,1020,64,0.0271610589761196,0.0273289082169833
755,1020,64,0.00132753490501259,0.0202792401007095
756,1020,64,0.0459601739528496,0.0398413061722744
757,1020,64,0.0342870222018769,0.0115815976195926
758,1020,64,0.00952162966353857,0.0139925230792706
741,1021,64,0.0471656366826886,0.00834668497749294
742,1021,64,0.0030060273136492,0.0158388647287709
743,1021,64,0.0017242694743267,0.011108567940795
744,1021,64,0.00190737773708705,0.0176089112687877
745,1021,64,0.00225833524071107,0.0282444495307851
746,1021,64,0.00166323338673991,0.0317235065232319
747,1021,64,0.0201724269474327,0.0217746242465858
748,1021,64,0.0025787747005417,0.0257572289616236
749,1021,64,0.0366979476615549,0.0220492866407263
750,1021,64,0.0158999008163577,0.0353704127565423
751,1021,64,0.00228885328450446,0.0299382009613184
752,1021,64,0.00863660639353018,0.012970168612192
753,1021,64,0.0315251392385748,0.0395971618219272
754,1021,64,0.0166628519111925,0.0148012512397955
755,1021,64,0.00225833524071107,0.0364385442893111
756,1021,64,0.00204470893415732,0.0206301976043336
757,1021,64,0.0908522163729305,0.0307164110780499
758,1021,64,0.00357061112382696,0.0345006485084306
740,1022,64,0.0142214084077211,0.0135652704661631
741,1022,64,0.0439917601281758,0.00839246204318303
742,1022,64,0.0212405584802014,0.00949111161974517
743,1022,64,0.103807125963226,0.0191653315022507
744,1022,64,0.121812771801328,0.0167849240863661
745,1022,64,0.0451667048142214,0.0206759746700237
746,1022,64,0.0236972610055695,0.0363012130922408
747,1022,64,0.00209048599984741,0.0257267109178302
748,1022,64,0.00187685969329366,0.0204318303196765
749,1022,64,0.00170901045243,0.0210421911955444
750,1022,64,0.0378271152819104,0.0162966353856718
751,1022,64,0.0194857709620813,0.00915541313801785
752,1022,64,0.0122835126268406,0.0176852063782712
753,1022,64,0.0377050431067369,0.0311589227130541
754,1022,64,0.00195315480277714,0.0293736171511406
755,1022,64,0.00917067215991455,0.0218204013122759
756,1022,64,0.036591134508278,0.0245822842755779
757,1022,64,0.0163118944075685,0.0160372320134279
758,1022,64,0.0216678110933089,0.0283054856183719
759,1022,64,0.0080872816052491,0.0160372320134279
745,1023,64,0.00192263675898375,0.0500953688868544
746,1023,64,0.0038300144960708,0.0107728694590677
747,1023,64,0.00503547722590982,0.0222629129472801
748,1023,64,0.0216372930495155,0.0402227817196918
749,1023,64,0.00889600976577401,0.0179751277943084
750,1023,64,0.0292668039978637,0.0199740596627756
751,1023,64,0.0394445716029602,0.0317540245670253
747,1018,65,0.00251773861295491,0.0290226596475166
748,1018,65,0.00157167925535973,0.0152132448310063
749,1018,65,0.0245365072098878,0.0147554741741054
750,1018,65,0.00265506981002518,0.0188906691081102
751,1018,65,0.00268558785381857,0.018448157473106
752,1018,65,0.00308232242313268,0.024124513618677
753,1018,65,0.00148012512397955,0.0146944380865187
754,1018,65,0.0300755321583886,0.00790417334248875
755,1018,65,0.00230411230640116,0.010452429999237
744,1019,65,0.00558480201419089,0.015228503852903
745,1019,65,0.0202182040131228,0.0369573510337987
746,1019,65,0.0225375753414206,0.0177309834439612
747,1019,65,0.00161745632104982,0.0156557564660105
748,1019,65,0.00274662394140536,0.0146944380865187
749,1019,65,0.00460822461280232,0.0148012512397955
750,1019,65,0.0021362630655375,0.0188143739986267
751,1019,65,0.00181582360570687,0.0121309224078737
752,1019,65,0.00221255817502098,0.0114900434882124
753,1019,65,0.00205996795605402,0.0335698481727321
754,1019,65,0.00233463035019455,0.0242008087281605
755,1019,65,0.00209048599984741,0.0250553139543755
756,1019,65,0.0871290150301366,0.00695811398489357
757,1019,65,0.00303654535744259,0.0216983291371023
742,1020,65,0.0477454795147631,0.0129549095902953
743,1020,65,0.107591363393606,0.0152742809185931
744,1020,65,0.0046692607003891,0.0123750667582208
745,1020,65,0.0147859922178988,0.0181734950789654
746,1020,65,0.0881208514534218,0.04443427176318
747,1020,65,0.00263981078812848,0.0322270542458228
748,1020,65,0.0025482566567483,0.0386968795300221
749,1020,65,0.0017242694743267,0.0147096971084154
750,1020,65,0.00563057907988098,0.0148622873273823
751,1020,65,0.0216525520714122,0.0651102464332036
752,1020,65,0.0242160677500572,0.024780651560235
753,1020,65,0.083939879453727,0.0514076447699702
754,1020,65,0.0493324177920195,0.0247043564507515
755,1020,65,0.0085297932402533,0.0107118333714809
756,1020,65,0.077454795147631,0.0192568856336309
757,1020,65,0.0238193331807431,0.0207522697795071
741,1021,65,0.011612115663386,0.00822461280231937
742,1021,65,0.016235599298085,0.0126497291523613
743,1021,65,0.0155489433127337,0.0174105439841306
744,1021,65,0.0331273365377279,0.0148012512397955
745,1021,65,0.00274662394140536,0.0193331807431144
746,1021,65,0.0108949416342412,0.0194552529182879
747,1021,65,0.0102693217364767,0.0489814602883955
748,1021,65,0.0270237277790494,0.012817578393225
749,1021,65,0.00228885328450446,0.0178072785534447
750,1021,65,0.00238040741588464,0.0363164721141375
751,1021,65,0.0110780498970016,0.0671854734111543
752,1021,65,0.0478065156023499,0.0296787975890745
753,1021,65,0.0738078889143206,0.0155947203784237
754,1021,65,0.0584267948424506,0.0459143968871595
755,1021,65,0.00335698481727321,0.0448462653543908
756,1021,65,0.0159761959258412,0.0221713588158999
757,1021,65,0.0384222171358816,0.0195468070496681
758,1021,65,0.0566414892805371,0.0380102235446708
740,1022,65,0.00244144350347143,0.0372014953841459
741,1022,65,0.0263065537499046,0.0229037918669413
742,1022,65,0.00181582360570687,0.0089417868314641
743,1022,65,0.00471503776607919,0.00827038986800946
744,1022,65,0.045136186770428,0.0211642633707179
745,1022,65,0.0130006866559854,0.0371557183184558
746,1022,65,0.00166323338673991,0.0152590218966964
747,1022,65,0.00190737773708705,0.0196078431372549
748,1022,65,0.0115358205539025,0.0230869001297017
749,1022,65,0.0346532387273976,0.0164644846265354
750,1022,65,0.0590371557183185,0.0267490653849088
751,1022,65,0.0120241092545968,0.024628061341268
752,1022,65,0.00205996795605402,0.0300755321583886
753,1022,65,0.0432440680552377,0.0196231021591516
754,1022,65,0.022415503166247,0.0328679331654841
755,1022,65,0.0407110704203861,0.0231784542610819
756,1022,65,0.00993362325474937,0.0235141527428092
757,1022,65,0.0117341878385595,0.024277103837644
758,1022,65,0.0124208438239109,0.0196841382467384
748,1018,66,0.0303654535744259,0.0106965743495842
749,1018,66,0.00187685969329366,0.00762951094834821
750,1018,66,0.0161745632104982,0.00802624551766232
751,1018,66,0.0105745021744106,0.0475165941863127
752,1018,66,0.00186160067139696,0.0126039520866712
753,1018,66,0.00236514839398795,0.0145876249332418
754,1018,66,0.00198367284657053,0.00755321583886473
744,1019,66,0.0144655527580682,0.013519493400473
745,1019,66,0.0152895399404898,0.013870450904097
746,1019,66,0.0308842603189136,0.013015945677882
747,1019,66,0.0279392690928511,0.0204928664072633
748,1019,66,0.0562752727550164,0.0146334019989319
749,1019,66,0.00260929274433509,0.0518348973830777
750,1019,66,0.0155642023346304,0.0228274967574578
751,1019,66,0.0229800869764248,0.0171206225680934
752,1019,66,0.00233463035019455,0.0318303196765087
753,1019,66,0.00570687418936446,0.00950637064164187
754,1019,66,0.00764476997024491,0.0130769817654688
755,1019,66,0.00782787823300526,0.00741588464179446
756,1019,66,0.00244144350347143,0.0120241092545968
743,1020,66,0.0359044785229267,0.0205691615167468
744,1020,66,0.117128252079042,0.0272068360418097
745,1020,66,0.005981536583505,0.0105287251087205
746,1020,66,0.00146486610208286,0.0145418478675517
747,1020,66,0.00184634164950027,0.0241550316624704
748,1020,66,0.00190737773708705,0.013321126115816
749,1020,66,0.00198367284657053,0.0273746852826734
750,1020,66,0.00190737773708705,0.019653620202945
751,1020,66,0.00166323338673991,0.0372777904936294
752,1020,66,0.0016937514305333,0.0337071793698024
753,1020,66,0.00395208667124437,0.0149080643930724
754,1020,66,0.0596017395284962,0.0287174792095827
755,1020,66,0.00787365529869535,0.0193484397650111
756,1020,66,0.0017242694743267,0.0220187685969329
757,1020,66,0.0021362630655375,0.0243228809033341
742,1021,66,0.00241092545967803,0.0128328374151217
743,1021,66,0.0691691462577249,0.0250247959105821
744,1021,66,0.0584115358205539,0.0666361486228733
745,1021,66,0.014373998626688,0.026337071793698
746,1021,66,0.00210574502174411,0.0254367895017929
747,1021,66,0.0134279392690929,0.0258487830930037
748,1021,66,0.00817883573662928,0.0214084077210651
749,1021,66,0.00157167925535973,0.0324254215304799
750,1021,66,0.00189211871519036,0.0354009308003357
751,1021,66,0.0021210040436408,0.0149843595025559
752,1021,66,0.00236514839398795,0.0168154421301595
753,1021,66,0.00759899290455482,0.0224460212100404
754,1021,66,0.00495918211642634,0.0149080643930724
755,1021,66,0.00253299763485161,0.0330815594720378
756,1021,66,0.031113145647364,0.0239414053559167
757,1021,66,0.00173952849622339,0.0242465857938506
741,1022,66,0.0128786144808118,0.0325169756618601
742,1022,66,0.0290226596475166,0.0418097199969482
743,1022,66,0.0838330663004501,0.0310978866254673
744,1022,66,0.00402838178072786,0.0103913939116503
745,1022,66,0.00210574502174411,0.0273899443045701
746,1022,66,0.00207522697795071,0.0209048599984741
747,1022,66,0.00146486610208286,0.021011673151751
748,1022,66,0.0626688029297322,0.0343938353551537
749,1022,66,0.012664988174258,0.0172274357213703
750,1022,66,0.0412451361867704,0.0151827267872129
751,1022,66,0.00173952849622339,0.02392614633402
752,1022,66,0.00198367284657053,0.0462653543907836
753,1022,66,0.00262455176623178,0.0291752498664836
754,1022,66,0.0847791256580453,0.0239108873121233
755,1022,66,0.0547951476310369,0.0401922636758984
756,1022,66,0.0783550774395361,0.0238345922026398
757,1022,66,0.0946822308690013,0.0344548714427405
