x,y,z,fucci_ch00,fucci_ch02
274,1,20,0.0604104676890211,0.00784313725490196
275,1,20,0.0371862363622492,0.00842298008697642
276,1,20,0.00520332646677348,0.0138399328603037
277,1,20,0.00270084687571527,0.0121309224078737
278,1,20,0.071473258564126,0.0100862134737163
279,1,20,0.0695353627832456,0.0117189288166629
280,1,20,0.0137178606851301,0.00926222629129473
281,1,20,0.00119020370794232,0.00790417334248875
282,1,20,0.00985732814526589,0.00834668497749294
283,1,20,0.0195620660715648,0.00807202258335241
284,1,20,0.00144960708018616,0.0080872816052491
285,1,20,0.00173952849622339,0.00817883573662928
286,1,20,0.0272831311512932,0.00827038986800946
287,1,20,0.00671396963454643,0.00781261921110857
273,2,20,0.0133821622034028,0.00787365529869535
274,2,20,0.00135805294880598,0.0076600289921416
275,2,20,0.0160219729915312,0.00781261921110857
276,2,20,0.0267185473411154,0.0151216906996262
277,2,20,0.00471503776607919,0.0107270923933776
278,2,20,0.00152590218966964,0.007690547035935
279,2,20,0.00152590218966964,0.00802624551766232
280,2,20,0.00199893186846723,0.00782787823300526
281,2,20,0.00260929274433509,0.012314030670634
282,2,20,0.00202944991226062,0.0135500114442664
283,2,20,0.0017242694743267,0.00901808194094758
284,2,20,0.00195315480277714,0.0159761959258412
285,2,20,0.00196841382467384,0.0076752880140383
286,2,20,0.00219729915312428,0.00740062561989776
287,2,20,0.0250858319981689,0.00743114366369116
288,2,20,0.00134279392690929,0.0105745021744106
272,3,20,0.00288395513847562,0.00862134737163348
273,3,20,0.0549477378500038,0.0177462424658579
274,3,20,0.0413214312962539,0.0225833524071107
275,3,20,0.0665751125352865,0.00909437705043107
276,3,20,0.112214847028305,0.00871290150301366
277,3,20,0.00154116121156634,0.00946059357595178
278,3,20,0.00199893186846723,0.00796520943007553
279,3,20,0.00210574502174411,0.0101930266269932
280,3,20,0.00163271534294652,0.00762951094834821
281,3,20,0.00167849240863661,0.00827038986800946
282,3,20,0.00201419089036393,0.00788891432059205
283,3,20,0.00205996795605402,0.00729381246662089
284,3,20,0.00209048599984741,0.00759899290455482
285,3,20,0.0262455176623178,0.0134279392690929
286,3,20,0.0722972457465477,0.00756847486076143
287,3,20,0.0932326237888151,0.00801098649576562
288,3,20,0.025284199282826,0.00740062561989776
271,4,20,0.0131380178530556,0.00845349813076982
272,4,20,0.00265506981002518,0.0191195544365606
273,4,20,0.0021210040436408,0.0103761348897536
274,4,20,0.00170901045243,0.00778210116731518
275,4,20,0.0614785992217899,0.0118257419699397
276,4,20,0.0493018997482261,0.0111390859845884
277,4,20,0.0193789578088045,0.0131227588311589
278,4,20,0.0136110475318532,0.0105745021744106
279,4,20,0.00189211871519036,0.00802624551766232
280,4,20,0.00764476997024491,0.00805676356145571
281,4,20,0.0106202792401007,0.00961318379491875
282,4,20,0.00230411230640116,0.0101625085831998
283,4,20,0.00968947890440223,0.00804150453955901
284,4,20,0.00166323338673991,0.00798046845197223
285,4,20,0.00224307621881437,0.00779736018921187
286,4,20,0.0021515220874342,0.00761425192645151
287,4,20,0.00132753490501259,0.0102845807583734
288,4,20,0.0021210040436408,0.017288471808957
269,5,20,0.00195315480277714,0.0229495689326314
270,5,20,0.00354009308003357,0.00762951094834821
271,5,20,0.00366216525520714,0.00796520943007553
272,5,20,0.0341954680704967,0.00831616693369955
273,5,20,0.00358587014572366,0.0181124589913787
274,5,20,0.00193789578088045,0.0129091325246052
275,5,20,0.00183108262760357,0.00750743877317464
276,5,20,0.0016937514305333,0.0081177996490425
277,5,20,0.00654612039368277,0.00830090791180285
278,5,20,0.0461280231937133,0.0119172961013199
279,5,20,0.0439459830624857,0.0109712367437247
280,5,20,0.00167849240863661,0.00759899290455482
281,5,20,0.00148012512397955,0.0302281223773556
282,5,20,0.025284199282826,0.00831616693369955
283,5,20,0.00205996795605402,0.00764476997024491
284,5,20,0.0196383611810483,0.00752269779507134
285,5,20,0.0631265735866331,0.00814831769283589
286,5,20,0.0017242694743267,0.00819409475852598
287,5,20,0.00221255817502098,0.00782787823300526
288,5,20,0.0021515220874342,0.00756847486076143
270,6,20,0.0345922026398108,0.0127412832837415
271,6,20,0.0142366674296178,0.0159914549477378
272,6,20,0.0127260242618448,0.00878919661249714
273,6,20,0.00230411230640116,0.0126802471961547
274,6,20,0.00181582360570687,0.0187228198672465
275,6,20,0.0280766002899214,0.00813305867093919
276,6,20,0.00622568093385214,0.00836194399938964
277,6,20,0.00459296559090562,0.0140077821011673
278,6,20,0.049210345616846,0.00775158312352178
279,6,20,0.00196841382467384,0.00759899290455482
280,6,20,0.0190890363927672,0.00788891432059205
281,6,20,0.0241702906843671,0.00886549172198062
282,6,20,0.0736705577172503,0.007690547035935
283,6,20,0.00205996795605402,0.00772106507972839
284,6,20,0.0263675898374914,0.00785839627679866
285,6,20,0.00837720302128634,0.00807202258335241
286,6,20,0.00155642023346304,0.00863660639353018
287,6,20,0.0016937514305333,0.016586556801709
288,6,20,0.0365300984206912,0.00773632410162509
289,6,20,0.0376592660410468,0.00801098649576562
270,7,20,0.00183108262760357,0.0115510795757992
271,7,20,0.107408255130846,0.0176394293125811
272,7,20,0.00378423743038071,0.00781261921110857
273,7,20,0.0307469291218433,0.00831616693369955
274,7,20,0.00210574502174411,0.0121766994735637
275,7,20,0.00244144350347143,0.00747692072938125
276,7,20,0.0021362630655375,0.00737010757610437
277,7,20,0.00155642023346304,0.00778210116731518
278,7,20,0.00184634164950027,0.00859082932784009
279,7,20,0.00224307621881437,0.0089723048752575
280,7,20,0.0021362630655375,0.00827038986800946
281,7,20,0.0604562447547112,0.00764476997024491
282,7,20,0.00283817807278553,0.00842298008697642
283,7,20,0.00192263675898375,0.00822461280231937
284,7,20,0.00177004654001678,0.0138857099259937
285,7,20,0.00166323338673991,0.0100404364080262
286,7,20,0.00184634164950027,0.0139925230792706
287,7,20,0.00198367284657053,0.0076752880140383
288,7,20,0.00190737773708705,0.0209811551079576
271,8,20,0.0012664988174258,0.00860608834973678
272,8,20,0.0181582360570687,0.00845349813076982
273,8,20,0.00619516289005875,0.00801098649576562
274,8,20,0.00177004654001678,0.00749217975127794
275,8,20,0.0171969176775769,0.00836194399938964
276,8,20,0.0145113298237583,0.0121461814297704
277,8,20,0.0348058289463645,0.0112916762035554
278,8,20,0.00209048599984741,0.007690547035935
279,8,20,0.0016937514305333,0.00784313725490196
280,8,20,0.0220950637064164,0.00843823910887312
281,8,20,0.0080872816052491,0.00825513084611276
282,8,20,0.0701457236591135,0.00802624551766232
283,8,20,0.00180056458381018,0.00764476997024491
284,8,20,0.00189211871519036,0.00781261921110857
285,8,20,0.00187685969329366,0.0178835736629282
286,8,20,0.00170901045243,0.0081025406271458
287,8,20,0.00186160067139696,0.00999465934233616
288,8,20,0.00216678110933089,0.00761425192645151
272,9,20,0.00149538414587625,0.00901808194094758
273,9,20,0.00112916762035554,0.00834668497749294
274,9,20,0.00157167925535973,0.00813305867093919
275,9,20,0.100953688868544,0.00790417334248875
276,9,20,0.0779736018921187,0.00843823910887312
277,9,20,0.00154116121156634,0.0112764171816587
278,9,20,0.00131227588311589,0.0153200579842832
279,9,20,0.00186160067139696,0.0107881284809644
280,9,20,0.00186160067139696,0.0215762569619287
281,9,20,0.0775005722133211,0.00794995040817884
282,9,20,0.00367742427710384,0.0080872816052491
283,9,20,0.00137331197070268,0.0124513618677043
284,9,20,0.00170901045243,0.012970168612192
285,9,20,0.00160219729915312,0.016083009079118
286,9,20,0.00177004654001678,0.00778210116731518
287,9,20,0.00170901045243,0.00854505226215
272,10,20,0.00175478751812009,0.013519493400473
273,10,20,0.0179598687724117,0.00791943236438544
274,10,20,0.00234988937209125,0.00761425192645151
275,10,20,0.0757610437170977,0.0113984893568322
276,10,20,0.0025787747005417,0.00827038986800946
277,10,20,0.00178530556191348,0.0150759136339361
278,10,20,0.0203402761882963,0.00761425192645151
279,10,20,0.0093690394445716,0.00843823910887312
280,10,20,0.0335545891508354,0.00825513084611276
281,10,20,0.0034027618829633,0.00805676356145571
282,10,20,0.00154116121156634,0.00753795681696803
283,10,20,0.0118410009918364,0.00785839627679866
284,10,20,0.0258793011367971,0.00827038986800946
285,10,20,0.00178530556191348,0.00968947890440223
286,10,20,0.0144045166704814,0.00758373388265812
287,10,20,0.00163271534294652,0.0105134660868238
273,11,20,0.0185091935606928,0.0160982681010147
274,11,20,0.0693980315861753,0.0080872816052491
275,11,20,0.00181582360570687,0.00827038986800946
276,11,20,0.00205996795605402,0.00750743877317464
277,11,20,0.00228885328450446,0.0109407186999313
278,11,20,0.00248722056916152,0.00793469138628214
279,11,20,0.00166323338673991,0.0076752880140383
280,11,20,0.00224307621881437,0.00758373388265812
281,11,20,0.00170901045243,0.0076600289921416
282,11,20,0.00199893186846723,0.00787365529869535
283,11,20,0.0813458457312886,0.00796520943007553
284,11,20,0.00714122224765393,0.0120088502327001
285,11,20,0.0021210040436408,0.00801098649576562
286,11,20,0.00186160067139696,0.00830090791180285
287,11,20,0.00968947890440223,0.00802624551766232
274,12,20,0.0012817578393225,0.00959792477302205
275,12,20,0.00186160067139696,0.0081025406271458
276,12,20,0.00231937132829786,0.00750743877317464
277,12,20,0.00196841382467384,0.00778210116731518
278,12,20,0.00167849240863661,0.00837720302128634
279,12,20,0.00167849240863661,0.00819409475852598
280,12,20,0.00195315480277714,0.00837720302128634
281,12,20,0.0417486839093614,0.00741588464179446
282,12,20,0.00267032883192187,0.00985732814526589
283,12,20,0.00152590218966964,0.0102845807583734
284,12,20,0.00181582360570687,0.00813305867093919
285,12,20,0.00193789578088045,0.0176852063782712
286,12,20,0.00189211871519036,0.0103303578240635
275,13,20,0.00334172579537652,0.0100862134737163
276,13,20,0.00233463035019455,0.00970473792629892
277,13,20,0.00166323338673991,0.00817883573662928
278,13,20,0.0153047989623865,0.00791943236438544
279,13,20,0.0021515220874342,0.00749217975127794
280,13,20,0.00175478751812009,0.00816357671473259
281,13,20,0.00198367284657053,0.0110322728313115
282,13,20,0.00181582360570687,0.0137026016632334
283,13,20,0.00167849240863661,0.0104982070649271
284,13,20,0.0021515220874342,0.0238498512245365
285,13,20,0.00154116121156634,0.0113527122911421
278,14,20,0.00170901045243,0.00779736018921187
279,14,20,0.00175478751812009,0.00833142595559625
280,14,20,0.00218204013122759,0.0126344701304646
281,14,20,0.0118562600137331,0.0164187075608454
282,14,20,0.00579842832074464,0.010406652933547
283,14,20,0.00643930724040589,0.00958266575112535
284,14,20,0.0163118944075685,0.007690547035935
273,1,21,0.00177004654001678,0.0188296330205234
274,1,21,0.0021210040436408,0.00794995040817884
275,1,21,0.00828564888990616,0.00787365529869535
276,1,21,0.00584420538643473,0.00822461280231937
277,1,21,0.00202944991226062,0.0107270923933776
278,1,21,0.0034027618829633,0.00784313725490196
279,1,21,0.0483710994125277,0.00776684214541848
280,1,21,0.0555886167696651,0.00971999694819562
281,1,21,0.0553597314412146,0.0139467460135805
282,1,21,0.118989852750439,0.00999465934233616
283,1,21,0.0063935301747158,0.00746166170748455
284,1,21,0.0340123598077363,0.00791943236438544
285,1,21,0.0186617837796597,0.00959792477302205
286,1,21,0.0114137483787289,0.00752269779507134
287,1,21,0.0121309224078737,0.00770580605783169
272,2,21,0.041214618142977,0.0125429159990845
273,2,21,0.00350957503624018,0.0085297932402533
274,2,21,0.00592050049591821,0.0076600289921416
275,2,21,0.00154116121156634,0.00827038986800946
276,2,21,0.0469672693980316,0.019851987487602
277,2,21,0.00326543068589303,0.00796520943007553
278,2,21,0.00233463035019455,0.007690547035935
279,2,21,0.00614938582436866,0.0076752880140383
280,2,21,0.00234988937209125,0.00794995040817884
281,2,21,0.002563515678645,0.0102845807583734
282,2,21,0.0345159075303273,0.00993362325474937
283,2,21,0.038452735179675,0.0072480354009308
284,2,21,0.00181582360570687,0.00924696726939803
285,2,21,0.00251773861295491,0.0107881284809644
286,2,21,0.00242618448157473,0.00732433051041428
287,2,21,0.00189211871519036,0.00833142595559625
288,2,21,0.00157167925535973,0.0178988326848249
271,3,21,0.0021515220874342,0.0348973830777447
272,3,21,0.0135042343785763,0.0151522087434195
273,3,21,0.0399481193255512,0.00968947890440223
274,3,21,0.0029907682917525,0.00798046845197223
275,3,21,0.00444037537193866,0.00737010757610437
276,3,21,0.00622568093385214,0.00741588464179446
277,3,21,0.0156404974441138,0.00770580605783169
278,3,21,0.00759899290455482,0.0080872816052491
279,3,21,0.024429694056611,0.00790417334248875
280,3,21,0.00245670252536812,0.00756847486076143
281,3,21,0.00158693827725643,0.00935378042267491
282,3,21,0.00158693827725643,0.00817883573662928
283,3,21,0.00175478751812009,0.0147096971084154
284,3,21,0.00186160067139696,0.0165407797360189
285,3,21,0.00193789578088045,0.00781261921110857
286,3,21,0.00157167925535973,0.00975051499198901
287,3,21,0.00224307621881437,0.007690547035935
288,3,21,0.00228885328450446,0.00901808194094758
289,3,21,0.00195315480277714,0.00759899290455482
270,4,21,0.0209048599984741,0.00744640268558785
271,4,21,0.0347753109025711,0.00790417334248875
272,4,21,0.0741588464179446,0.00801098649576562
273,4,21,0.00379949645227741,0.00796520943007553
274,4,21,0.00183108262760357,0.00743114366369116
275,4,21,0.00181582360570687,0.00776684214541848
276,4,21,0.00204470893415732,0.00827038986800946
277,4,21,0.0171511406118868,0.0105287251087205
278,4,21,0.0204013122758831,0.00909437705043107
279,4,21,0.00163271534294652,0.00743114366369116
280,4,21,0.00175478751812009,0.0081177996490425
281,4,21,0.00230411230640116,0.00776684214541848
282,4,21,0.00187685969329366,0.00831616693369955
283,4,21,0.00166323338673991,0.0198367284657053
284,4,21,0.00190737773708705,0.00848401617456321
285,4,21,0.00196841382467384,0.0110017547875181
286,4,21,0.0021515220874342,0.0118562600137331
287,4,21,0.00161745632104982,0.00759899290455482
288,4,21,0.00207522697795071,0.00746166170748455
269,5,21,0.0523079270618753,0.0145571068894484
270,5,21,0.0195315480277714,0.00917067215991455
271,5,21,0.0570229648279545,0.0076600289921416
272,5,21,0.004272526131075,0.00761425192645151
273,5,21,0.0349736781872282,0.00752269779507134
274,5,21,0.0146639200427253,0.0404669260700389
275,5,21,0.0526894026092927,0.00791943236438544
276,5,21,0.00173952849622339,0.0197451743343252
277,5,21,0.00231937132829786,0.00784313725490196
278,5,21,0.00233463035019455,0.00799572747386892
279,5,21,0.028900587472343,0.0076600289921416
280,5,21,0.00813305867093919,0.00744640268558785
281,5,21,0.00108339055466545,0.0107118333714809
282,5,21,0.00714122224765393,0.0107118333714809
283,5,21,0.0279545281147478,0.00807202258335241
284,5,21,0.031815060654612,0.00732433051041428
285,5,21,0.00976577401388571,0.00711070420386053
286,5,21,0.0370489051651789,0.00776684214541848
287,5,21,0.0101319905394064,0.0081025406271458
288,5,21,0.0386358434424353,0.00788891432059205
270,6,21,0.00167849240863661,0.00714122224765393
271,6,21,0.0247653925383383,0.00785839627679866
272,6,21,0.049759670405127,0.007690547035935
273,6,21,0.00643930724040589,0.00773632410162509
274,6,21,0.00154116121156634,0.00927748531319142
275,6,21,0.0146639200427253,0.0107881284809644
276,6,21,0.00239566643778134,0.00825513084611276
277,6,21,0.0184176394293126,0.0085297932402533
278,6,21,0.00164797436484321,0.00761425192645151
279,6,21,0.0240939955748837,0.00785839627679866
280,6,21,0.00224307621881437,0.0080872816052491
281,6,21,0.014526588845655,0.00819409475852598
282,6,21,0.0138551918822004,0.00842298008697642
283,6,21,0.00158693827725643,0.00740062561989776
284,6,21,0.00198367284657053,0.0076752880140383
285,6,21,0.00259403372243839,0.0170748455024033
286,6,21,0.00187685969329366,0.00794995040817884
287,6,21,0.00167849240863661,0.00750743877317464
288,6,21,0.00216678110933089,0.00747692072938125
289,6,21,0.00227359426260777,0.0085145342183566
270,7,21,0.00242618448157473,0.00801098649576562
271,7,21,0.00157167925535973,0.00782787823300526
272,7,21,0.00183108262760357,0.00747692072938125
273,7,21,0.00218204013122759,0.00741588464179446
274,7,21,0.0754100862134737,0.00796520943007553
275,7,21,0.0297398336766613,0.00791943236438544
276,7,21,0.00177004654001678,0.00741588464179446
277,7,21,0.00209048599984741,0.00718699931334401
278,7,21,0.00225833524071107,0.0076752880140383
279,7,21,0.00180056458381018,0.00791943236438544
280,7,21,0.0554360265506981,0.00782787823300526
281,7,21,0.0021515220874342,0.00744640268558785
282,7,21,0.00277714198519875,0.00752269779507134
283,7,21,0.00273136491950866,0.0081177996490425
284,7,21,0.00177004654001678,0.00775158312352178
285,7,21,0.0405889982452125,0.00750743877317464
286,7,21,0.00207522697795071,0.00759899290455482
287,7,21,0.00202944991226062,0.014175631342031
288,7,21,0.00370794232089723,0.0144350347142748
271,8,21,0.0693980315861753,0.00749217975127794
272,8,21,0.0199130235751888,0.00801098649576562
273,8,21,0.00315861753261616,0.00775158312352178
274,8,21,0.0196688792248417,0.00747692072938125
275,8,21,0.0245059891660945,0.0140993362325475
276,8,21,0.00183108262760357,0.0076600289921416
277,8,21,0.0318913557640955,0.00787365529869535
278,8,21,0.00202944991226062,0.0137026016632334
279,8,21,0.00193789578088045,0.0125734340428779
280,8,21,0.0016937514305333,0.00889600976577401
281,8,21,0.00192263675898375,0.00953688868543526
282,8,21,0.0243991760128176,0.00787365529869535
283,8,21,0.0568245975432975,0.00782787823300526
284,8,21,0.00239566643778134,0.00790417334248875
285,8,21,0.00190737773708705,0.00740062561989776
286,8,21,0.00201419089036393,0.00778210116731518
287,8,21,0.00216678110933089,0.0119783321889067
288,8,21,0.0021515220874342,0.0089723048752575
272,9,21,0.00181582360570687,0.00770580605783169
273,9,21,0.00251773861295491,0.0146944380865187
274,9,21,0.00224307621881437,0.00822461280231937
275,9,21,0.00187685969329366,0.0223086900129702
276,9,21,0.00164797436484321,0.00958266575112535
277,9,21,0.00205996795605402,0.00775158312352178
278,9,21,0.0021362630655375,0.007690547035935
279,9,21,0.00181582360570687,0.0125734340428779
280,9,21,0.00608834973678187,0.00796520943007553
281,9,21,0.00520332646677348,0.00735484855420768
282,9,21,0.0528877698939498,0.00794995040817884
283,9,21,0.00195315480277714,0.0103608758678569
284,9,21,0.00170901045243,0.0159609369039445
285,9,21,0.0191195544365606,0.00914015411612116
286,9,21,0.0137788967727169,0.00741588464179446
287,9,21,0.00393682764934768,0.00733958953231098
288,9,21,0.0486152437628748,0.00790417334248875
272,10,21,0.0121919584954604,0.00837720302128634
273,10,21,0.0132295719844358,0.0125581750209812
274,10,21,0.00651560234988937,0.007690547035935
275,10,21,0.00866712443732357,0.0106813153276875
276,10,21,0.00199893186846723,0.00775158312352178
277,10,21,0.0306858930342565,0.0097962920576791
278,10,21,0.00202944991226062,0.00805676356145571
279,10,21,0.0025787747005417,0.00796520943007553
280,10,21,0.0685740444037537,0.00833142595559625
281,10,21,0.017441062027924,0.012115663385977
282,10,21,0.0244144350347143,0.0089570458533608
283,10,21,0.0139620050354772,0.00796520943007553
284,10,21,0.0110170138094148,0.0104676890211337
285,10,21,0.00187685969329366,0.0080872816052491
286,10,21,0.00152590218966964,0.0101777676050965
287,10,21,0.0273289082169833,0.00889600976577401
273,11,21,0.00228885328450446,0.00758373388265812
274,11,21,0.00187685969329366,0.00822461280231937
275,11,21,0.00143434805828946,0.00817883573662928
276,11,21,0.00219729915312428,0.00764476997024491
277,11,21,0.0025787747005417,0.00772106507972839
278,11,21,0.0350957503624018,0.00804150453955901
279,11,21,0.00173952849622339,0.00817883573662928
280,11,21,0.00218204013122759,0.00889600976577401
281,11,21,0.0025482566567483,0.0227969787136645
282,11,21,0.00222781719691768,0.00779736018921187
283,11,21,0.00161745632104982,0.0121461814297704
284,11,21,0.00666819256885634,0.00836194399938964
285,11,21,0.0421759365224689,0.00985732814526589
286,11,21,0.00247196154726482,0.0126497291523613
287,11,21,0.00193789578088045,0.00801098649576562
274,12,21,0.00170901045243,0.00781261921110857
275,12,21,0.00247196154726482,0.0234836346990158
276,12,21,0.00764476997024491,0.0093842984664683
277,12,21,0.0122072175173571,0.00784313725490196
278,12,21,0.00444037537193866,0.00779736018921187
279,12,21,0.020706492713817,0.009399557488365
280,12,21,0.0640421149004349,0.00816357671473259
281,12,21,0.00831616693369955,0.00817883573662928
282,12,21,0.00155642023346304,0.00749217975127794
283,12,21,0.00202944991226062,0.007690547035935
284,12,21,0.00239566643778134,0.00794995040817884
285,12,21,0.00137331197070268,0.00840772106507973
286,12,21,0.0282139314869917,0.00814831769283589
275,13,21,0.00233463035019455,0.0076752880140383
276,13,21,0.00248722056916152,0.00737010757610437
277,13,21,0.00276188296330205,0.0076752880140383
278,13,21,0.00181582360570687,0.00790417334248875
279,13,21,0.00180056458381018,0.00779736018921187
280,13,21,0.00196841382467384,0.00773632410162509
281,13,21,0.00263981078812848,0.00737010757610437
282,13,21,0.00190737773708705,0.00819409475852598
283,13,21,0.0232547493705653,0.00820935378042268
284,13,21,0.0244449530785077,0.0158388647287709
285,13,21,0.0210879682612345,0.00755321583886473
277,14,21,0.00196841382467384,0.00849927519645991
278,14,21,0.00245670252536812,0.00717174029144732
279,14,21,0.00228885328450446,0.0081177996490425
280,14,21,0.00204470893415732,0.00849927519645991
281,14,21,0.0797131303883421,0.00878919661249714
282,14,21,0.00247196154726482,0.00999465934233616
283,14,21,0.00227359426260777,0.00862134737163348
284,14,21,0.0255893797207599,0.00778210116731518
273,1,22,0.0117189288166629,0.0208743419546807
274,1,22,0.0234988937209125,0.00761425192645151
275,1,22,0.0668039978637369,0.00798046845197223
276,1,22,0.0789501792935073,0.00787365529869535
277,1,22,0.0797283894102388,0.0123598077363241
278,1,22,0.00199893186846723,0.00782787823300526
279,1,22,0.0025787747005417,0.00770580605783169
280,1,22,0.0202639810788128,0.0076600289921416
281,1,22,0.00149538414587625,0.00776684214541848
282,1,22,0.00157167925535973,0.00737010757610437
283,1,22,0.00465400167849241,0.00776684214541848
284,1,22,0.00225833524071107,0.00756847486076143
285,1,22,0.010955977721828,0.0173952849622339
286,1,22,0.00146486610208286,0.00758373388265812
287,1,22,0.00177004654001678,0.0111848630502785
288,1,22,0.0025787747005417,0.00915541313801785
272,2,22,0.0323949034866865,0.0138551918822004
273,2,22,0.0292668039978637,0.0131837949187457
274,2,22,0.00209048599984741,0.0163424124513619
275,2,22,0.00161745632104982,0.00735484855420768
276,2,22,0.00222781719691768,0.0112153810940719
277,2,22,0.00248722056916152,0.0216830701152056
278,2,22,0.00228885328450446,0.00807202258335241
279,2,22,0.0063782711528191,0.00845349813076982
280,2,22,0.0201419089036393,0.0224460212100404
281,2,22,0.0377660791943236,0.00796520943007553
282,2,22,0.065293354695964,0.00744640268558785
283,2,22,0.00224307621881437,0.00747692072938125
284,2,22,0.00407415884641794,0.0072327763790341
285,2,22,0.0505226214999619,0.00787365529869535
286,2,22,0.0129091325246052,0.0202944991226062
287,2,22,0.0250553139543755,0.0250858319981689
288,2,22,0.00302128633554589,0.028198672465095
271,3,22,0.0025482566567483,0.00915541313801785
272,3,22,0.041214618142977,0.00779736018921187
273,3,22,0.0421454184786755,0.010452429999237
274,3,22,0.0691233691920348,0.00788891432059205
275,3,22,0.00199893186846723,0.0193636987869078
276,3,22,0.00160219729915312,0.0093690394445716
277,3,22,0.0021210040436408,0.00743114366369116
278,3,22,0.00221255817502098,0.00770580605783169
279,3,22,0.00869764248111696,0.00793469138628214
280,3,22,0.00205996795605402,0.00804150453955901
281,3,22,0.00201419089036393,0.00761425192645151
282,3,22,0.0112153810940719,0.0193942168307012
283,3,22,0.00744640268558785,0.00787365529869535
284,3,22,0.134187838559548,0.00798046845197223
285,3,22,0.0025787747005417,0.00819409475852598
286,3,22,0.00195315480277714,0.00776684214541848
287,3,22,0.00248722056916152,0.00759899290455482
288,3,22,0.00201419089036393,0.00794995040817884
289,3,22,0.056946669718471,0.00814831769283589
270,4,22,0.00361638818951705,0.0207980468451972
271,4,22,0.0252231631952392,0.0195468070496681
272,4,22,0.0499580376897841,0.0179598687724117
273,4,22,0.00242618448157473,0.0202487220569162
274,4,22,0.0305333028152895,0.00787365529869535
275,4,22,0.00411993591210803,0.0149233234149691
276,4,22,0.00199893186846723,0.00798046845197223
277,4,22,0.0159456778820478,0.0113374532692454
278,4,22,0.00260929274433509,0.00798046845197223
279,4,22,0.00193789578088045,0.0113221942473487
280,4,22,0.00210574502174411,0.00755321583886473
281,4,22,0.0021362630655375,0.00756847486076143
282,4,22,0.00196841382467384,0.00816357671473259
283,4,22,0.00192263675898375,0.00782787823300526
284,4,22,0.0439154650186923,0.00759899290455482
285,4,22,0.00178530556191348,0.00762951094834821
286,4,22,0.00186160067139696,0.0113221942473487
287,4,22,0.00192263675898375,0.0112764171816587
288,4,22,0.0164797436484321,0.00772106507972839
269,5,22,0.00616464484626535,0.00744640268558785
270,5,22,0.0165407797360189,0.0185549706263828
271,5,22,0.00248722056916152,0.00721751735713741
272,5,22,0.00263981078812848,0.0144808117799649
273,5,22,0.00186160067139696,0.00793469138628214
274,5,22,0.0247653925383383,0.0139620050354772
275,5,22,0.00210574502174411,0.0081025406271458
276,5,22,0.00238040741588464,0.00891126878767071
277,5,22,0.00224307621881437,0.0122682536049439
278,5,22,0.00245670252536812,0.0188143739986267
279,5,22,0.00202944991226062,0.00794995040817884
280,5,22,0.00187685969329366,0.00737010757610437
281,5,22,0.00216678110933089,0.0076600289921416
282,5,22,0.0115510795757992,0.00778210116731518
283,5,22,0.00701915007248035,0.00753795681696803
284,5,22,0.0252994583047227,0.00776684214541848
285,5,22,0.00190737773708705,0.00784313725490196
286,5,22,0.0290379186694133,0.00729381246662089
287,5,22,0.1057755397879,0.0155489433127337
288,5,22,0.00207522697795071,0.013015945677882
270,6,22,0.00260929274433509,0.00740062561989776
271,6,22,0.00202944991226062,0.00704966811627375
272,6,22,0.0252231631952392,0.00718699931334401
273,6,22,0.00209048599984741,0.00784313725490196
274,6,22,0.00201419089036393,0.00764476997024491
275,6,22,0.00183108262760357,0.00738536659800107
276,6,22,0.00190737773708705,0.00753795681696803
277,6,22,0.00196841382467384,0.0253147173266194
278,6,22,0.0021210040436408,0.00750743877317464
279,6,22,0.0098115510795758,0.010452429999237
280,6,22,0.0104219119554437,0.0121004043640803
281,6,22,0.00199893186846723,0.00909437705043107
282,6,22,0.0221408407721065,0.00827038986800946
283,6,22,0.0228580148012512,0.00714122224765393
284,6,22,0.0747081712062257,0.00744640268558785
285,6,22,0.0130617227435721,0.007690547035935
286,6,22,0.00244144350347143,0.0132448310063325
287,6,22,0.00474555580987259,0.00965896086060884
288,6,22,0.00190737773708705,0.00753795681696803
270,7,22,0.0117341878385595,0.00756847486076143
271,7,22,0.0820630197604334,0.0100099183642329
272,7,22,0.00231937132829786,0.0244144350347143
273,7,22,0.0021210040436408,0.0201419089036393
274,7,22,0.00288395513847562,0.0104982070649271
275,7,22,0.0323796444647898,0.00740062561989776
276,7,22,0.0021362630655375,0.007690547035935
277,7,22,0.00189211871519036,0.007690547035935
278,7,22,0.00190737773708705,0.00775158312352178
279,7,22,0.00218204013122759,0.00801098649576562
280,7,22,0.00233463035019455,0.00764476997024491
281,7,22,0.00242618448157473,0.00778210116731518
282,7,22,0.0178377965972381,0.00796520943007553
283,7,22,0.00263981078812848,0.0076752880140383
284,7,22,0.0021362630655375,0.0187533379110399
285,7,22,0.00201419089036393,0.00758373388265812
286,7,22,0.0016937514305333,0.00784313725490196
287,7,22,0.0042877851529717,0.0113374532692454
288,7,22,0.00233463035019455,0.0112764171816587
271,8,22,0.0321812771801328,0.00799572747386892
272,8,22,0.0174258030060273,0.00776684214541848
273,8,22,0.00201419089036393,0.0072327763790341
274,8,22,0.00743114366369116,0.0216525520714122
275,8,22,0.00953688868543526,0.0137788967727169
276,8,22,0.00402838178072786,0.0192111085679408
277,8,22,0.0339513237201495,0.00793469138628214
278,8,22,0.00883497367818723,0.00878919661249714
279,8,22,0.00781261921110857,0.00720225833524071
280,8,22,0.00592050049591821,0.00775158312352178
281,8,22,0.0021210040436408,0.00814831769283589
282,8,22,0.00170901045243,0.0110933089188983
283,8,22,0.0156557564660105,0.00753795681696803
284,8,22,0.00241092545967803,0.014526588845655
285,8,22,0.0418860151064317,0.0138857099259937
286,8,22,0.00231937132829786,0.0256046387426566
287,8,22,0.00198367284657053,0.00817883573662928
288,8,22,0.00924696726939803,0.00730907148851759
271,9,22,0.00204470893415732,0.00785839627679866
272,9,22,0.00201419089036393,0.00749217975127794
273,9,22,0.0119172961013199,0.00759899290455482
274,9,22,0.0198214694438087,0.00753795681696803
275,9,22,0.0153658350499733,0.00823987182421607
276,9,22,0.0021362630655375,0.00816357671473259
277,9,22,0.00184634164950027,0.00737010757610437
278,9,22,0.00205996795605402,0.00749217975127794
279,9,22,0.00201419089036393,0.00822461280231937
280,9,22,0.00549324788281071,0.00753795681696803
281,9,22,0.00631723506523232,0.00917067215991455
282,9,22,0.00183108262760357,0.00758373388265812
283,9,22,0.00227359426260777,0.0173189898527504
284,9,22,0.00183108262760357,0.00827038986800946
285,9,22,0.00209048599984741,0.00704966811627375
286,9,22,0.00196841382467384,0.00688181887541009
287,9,22,0.00207522697795071,0.00787365529869535
288,9,22,0.00184634164950027,0.00816357671473259
272,10,22,0.0216678110933089,0.031967650873579
273,10,22,0.00337224383916991,0.00831616693369955
274,10,22,0.0017242694743267,0.00926222629129473
275,10,22,0.00163271534294652,0.0134737163347829
276,10,22,0.00221255817502098,0.0105134660868238
277,10,22,0.0246433203631647,0.0270695048447395
278,10,22,0.0100251773861295,0.00775158312352178
279,10,22,0.00184634164950027,0.00720225833524071
280,10,22,0.00210574502174411,0.00733958953231098
281,10,22,0.00244144350347143,0.00798046845197223
282,10,22,0.111512932021057,0.0080872816052491
283,10,22,0.00184634164950027,0.0119020370794232
284,10,22,0.00204470893415732,0.00866712443732357
285,10,22,0.00181582360570687,0.00752269779507134
286,10,22,0.00184634164950027,0.00772106507972839
287,10,22,0.00204470893415732,0.00761425192645151
273,11,22,0.00173952849622339,0.00709544518196384
274,11,22,0.00193789578088045,0.01879911497673
275,11,22,0.00268558785381857,0.00781261921110857
276,11,22,0.00407415884641794,0.00756847486076143
277,11,22,0.041870756084535,0.019150072480354
278,11,22,0.00227359426260777,0.00761425192645151
279,11,22,0.0175173571374075,0.00773632410162509
280,11,22,0.00216678110933089,0.00788891432059205
281,11,22,0.0346684977492943,0.00823987182421607
282,11,22,0.0146639200427253,0.0179751277943084
283,11,22,0.0021362630655375,0.0121309224078737
284,11,22,0.00219729915312428,0.00784313725490196
285,11,22,0.00228885328450446,0.00752269779507134
286,11,22,0.0324406805523766,0.00730907148851759
287,11,22,0.00199893186846723,0.00778210116731518
274,12,22,0.00209048599984741,0.00796520943007553
275,12,22,0.0089723048752575,0.00749217975127794
276,12,22,0.00285343709468223,0.00746166170748455
277,12,22,0.00205996795605402,0.00779736018921187
278,12,22,0.00994888227664607,0.00805676356145571
279,12,22,0.00967421988250553,0.00735484855420768
280,12,22,0.00221255817502098,0.00759899290455482
281,12,22,0.00205996795605402,0.0076752880140383
282,12,22,0.00180056458381018,0.0076752880140383
283,12,22,0.00683604180972,0.0101930266269932
284,12,22,0.031769283588922,0.00756847486076143
285,12,22,0.00210574502174411,0.00762951094834821
286,12,22,0.00180056458381018,0.00753795681696803
275,13,22,0.00138857099259937,0.00776684214541848
276,13,22,0.00216678110933089,0.00756847486076143
277,13,22,0.002563515678645,0.00709544518196384
278,13,22,0.00186160067139696,0.00762951094834821
279,13,22,0.00317387655451286,0.00749217975127794
280,13,22,0.0330815594720378,0.0120546272983902
281,13,22,0.00204470893415732,0.0121309224078737
282,13,22,0.00201419089036393,0.00799572747386892
283,13,22,0.00192263675898375,0.0115663385976959
284,13,22,0.00204470893415732,0.017792019531548
285,13,22,0.0888990615701534,0.00756847486076143
277,14,22,0.00199893186846723,0.00779736018921187
278,14,22,0.00502021820401312,0.00820935378042268
279,14,22,0.0229495689326314,0.00750743877317464
280,14,22,0.0021210040436408,0.0229800869764248
281,14,22,0.00135805294880598,0.0224917982757305
282,14,22,0.00199893186846723,0.00973525597009232
283,14,22,0.002563515678645,0.010101472495613
284,14,22,0.00245670252536812,0.0107881284809644
285,14,22,0.00178530556191348,0.00843823910887312
281,15,22,0.00860608834973678,0.00759899290455482
282,15,22,0.0171663996337835,0.00779736018921187
283,15,22,0.00175478751812009,0.00807202258335241
272,1,23,0.00701915007248035,0.00828564888990616
273,1,23,0.0195315480277714,0.00778210116731518
274,1,23,0.00279240100709545,0.00740062561989776
275,1,23,0.115358205539025,0.0101777676050965
276,1,23,0.00335698481727321,0.00846875715266651
277,1,23,0.0445868619821469,0.00781261921110857
278,1,23,0.0507972838941024,0.00770580605783169
279,1,23,0.00219729915312428,0.00798046845197223
280,1,23,0.00236514839398795,0.00950637064164187
281,1,23,0.00181582360570687,0.0129396505683986
282,1,23,0.005981536583505,0.00761425192645151
283,1,23,0.0172579537651637,0.00831616693369955
284,1,23,0.0021210040436408,0.00796520943007553
285,1,23,0.00195315480277714,0.00813305867093919
286,1,23,0.00195315480277714,0.00737010757610437
287,1,23,0.00224307621881437,0.0134584573128862
288,1,23,0.00253299763485161,0.00869764248111696
271,2,23,0.0208438239108873,0.025833524071107
272,2,23,0.00915541313801785,0.00778210116731518
273,2,23,0.0719005111772335,0.00820935378042268
274,2,23,0.021515220874342,0.00958266575112535
275,2,23,0.0433813992523079,0.0132753490501259
276,2,23,0.0245975432974746,0.0080872816052491
277,2,23,0.0275883115892271,0.00784313725490196
278,2,23,0.00228885328450446,0.00819409475852598
279,2,23,0.00737010757610437,0.00822461280231937
280,2,23,0.0182040131227588,0.00752269779507134
281,2,23,0.00238040741588464,0.00823987182421607
282,2,23,0.00228885328450446,0.0081025406271458
283,2,23,0.00196841382467384,0.00798046845197223
284,2,23,0.00196841382467384,0.00801098649576562
285,2,23,0.0559090562294957,0.00872816052491035
286,2,23,0.00279240100709545,0.0153658350499733
287,2,23,0.0554360265506981,0.0135805294880598
288,2,23,0.00721751735713741,0.00781261921110857
289,2,23,0.00416571297779812,0.0157930876630808
270,3,23,0.070572976272221,0.0558632791638056
271,3,23,0.0768749523155566,0.0221713588158999
272,3,23,0.0201113908598459,0.0108339055466545
273,3,23,0.00233463035019455,0.00801098649576562
274,3,23,0.00248722056916152,0.00860608834973678
275,3,23,0.087708857862211,0.0195773250934615
276,3,23,0.00761425192645151,0.00888075074387732
277,3,23,0.00154116121156634,0.00755321583886473
278,3,23,0.00204470893415732,0.0124818799114977
279,3,23,0.00762951094834821,0.0110780498970016
280,3,23,0.0126497291523613,0.00926222629129473
281,3,23,0.0109712367437247,0.0124055848020142
282,3,23,0.00830090791180285,0.0140535591668574
283,3,23,0.00225833524071107,0.00814831769283589
284,3,23,0.0021362630655375,0.00798046845197223
285,3,23,0.0108491645685512,0.00764476997024491
286,3,23,0.00349431601434348,0.022720683604181
287,3,23,0.00479133287556268,0.0120241092545968
288,3,23,0.00358587014572366,0.00836194399938964
289,3,23,0.00204470893415732,0.007690547035935
269,4,23,0.116365300984207,0.0122072175173571
270,4,23,0.0097962920576791,0.0492713817044327
271,4,23,0.00199893186846723,0.0120393682764935
272,4,23,0.00204470893415732,0.0076752880140383
273,4,23,0.00230411230640116,0.0120088502327001
274,4,23,0.00166323338673991,0.00787365529869535
275,4,23,0.0421454184786755,0.0101472495613031
276,4,23,0.035385671778439,0.00756847486076143
277,4,23,0.00189211871519036,0.00833142595559625
278,4,23,0.0337071793698024,0.0132448310063325
279,4,23,0.00189211871519036,0.0152590218966964
280,4,23,0.00198367284657053,0.00804150453955901
281,4,23,0.00196841382467384,0.00833142595559625
282,4,23,0.00210574502174411,0.0168917372396429
283,4,23,0.00178530556191348,0.0178072785534447
284,4,23,0.00195315480277714,0.0080872816052491
285,4,23,0.0021210040436408,0.0093690394445716
286,4,23,0.00236514839398795,0.0105439841306172
287,4,23,0.00193789578088045,0.00762951094834821
288,4,23,0.00199893186846723,0.00738536659800107
269,5,23,0.0137941557946136,0.00776684214541848
270,5,23,0.0742961776150149,0.00784313725490196
271,5,23,0.0267948424505989,0.00801098649576562
272,5,23,0.00582894636453803,0.00820935378042268
273,5,23,0.00221255817502098,0.00857557030594339
274,5,23,0.00189211871519036,0.00770580605783169
275,5,23,0.00236514839398795,0.0107118333714809
276,5,23,0.00238040741588464,0.00834668497749294
277,5,23,0.00175478751812009,0.00759899290455482
278,5,23,0.0021515220874342,0.00729381246662089
279,5,23,0.00231937132829786,0.00816357671473259
280,5,23,0.00219729915312428,0.00805676356145571
281,5,23,0.00202944991226062,0.00759899290455482
282,5,23,0.0034027618829633,0.00761425192645151
283,5,23,0.00190737773708705,0.00781261921110857
284,5,23,0.00204470893415732,0.0179140917067216
285,5,23,0.0207980468451972,0.00756847486076143
286,5,23,0.124864576180667,0.00737010757610437
287,5,23,0.0319066147859922,0.00805676356145571
288,5,23,0.00192263675898375,0.00822461280231937
269,6,23,0.00234988937209125,0.0249027237354086
270,6,23,0.0544289311055161,0.00779736018921187
271,6,23,0.00199893186846723,0.00775158312352178
272,6,23,0.00207522697795071,0.0124208438239109
273,6,23,0.00189211871519036,0.0143282215609979
274,6,23,0.00234988937209125,0.00784313725490196
275,6,23,0.0160677500572213,0.0163424124513619
276,6,23,0.0225528343633173,0.0110475318532082
277,6,23,0.0349126420996414,0.00805676356145571
278,6,23,0.00190737773708705,0.00849927519645991
279,6,23,0.0650949874113069,0.00776684214541848
280,6,23,0.00209048599984741,0.00762951094834821
281,6,23,0.00196841382467384,0.0151369497215229
282,6,23,0.0599374380102235,0.00790417334248875
283,6,23,0.00218204013122759,0.00793469138628214
284,6,23,0.00189211871519036,0.00753795681696803
285,6,23,0.00216678110933089,0.00804150453955901
286,6,23,0.00222781719691768,0.00807202258335241
287,6,23,0.00236514839398795,0.00793469138628214
288,6,23,0.0422674906538491,0.00773632410162509
289,6,23,0.00218204013122759,0.00747692072938125
270,7,23,0.00735484855420768,0.0112153810940719
271,7,23,0.0493171587701228,0.00827038986800946
272,7,23,0.00408941786831464,0.00775158312352178
273,7,23,0.0189364461738003,0.0135957885099565
274,7,23,0.00181582360570687,0.0080872816052491
275,7,23,0.0335851071946288,0.0161898222323949
276,7,23,0.00282291905088884,0.00794995040817884
277,7,23,0.0366216525520714,0.0165255207141222
278,7,23,0.00451667048142214,0.00749217975127794
279,7,23,0.0280613412680247,0.0080872816052491
280,7,23,0.0017242694743267,0.0085145342183566
281,7,23,0.00218204013122759,0.012466620889601
282,7,23,0.00216678110933089,0.0112916762035554
283,7,23,0.00181582360570687,0.0136263065537499
284,7,23,0.00842298008697642,0.00816357671473259
285,7,23,0.0021210040436408,0.00917067215991455
286,7,23,0.00245670252536812,0.0107423514152743
287,7,23,0.00209048599984741,0.00746166170748455
288,7,23,0.00189211871519036,0.00798046845197223
270,8,23,0.0168917372396429,0.00758373388265812
271,8,23,0.00708018616006714,0.00750743877317464
272,8,23,0.0168612191958495,0.00798046845197223
273,8,23,0.0551461051346609,0.0117494468604562
274,8,23,0.00225833524071107,0.0120698863202869
275,8,23,0.00233463035019455,0.018142977035172
276,8,23,0.00198367284657053,0.0119478141451133
277,8,23,0.00219729915312428,0.00804150453955901
278,8,23,0.00244144350347143,0.0229800869764248
279,8,23,0.00248722056916152,0.00762951094834821
280,8,23,0.00198367284657053,0.00755321583886473
281,8,23,0.0202944991226062,0.00898756389715419
282,8,23,0.00201419089036393,0.00807202258335241
283,8,23,0.00192263675898375,0.00787365529869535
284,8,23,0.00227359426260777,0.00790417334248875
285,8,23,0.00161745632104982,0.0104219119554437
286,8,23,0.00930800335698482,0.0124055848020142
287,8,23,0.0486610208285649,0.0127260242618448
288,8,23,0.00259403372243839,0.00807202258335241
271,9,23,0.00164797436484321,0.0131990539406424
272,9,23,0.0549324788281071,0.00793469138628214
273,9,23,0.0178225375753414,0.00747692072938125
274,9,23,0.0458686198214694,0.00733958953231098
275,9,23,0.0100709544518196,0.0177462424658579
276,9,23,0.0304264896620127,0.00828564888990616
277,9,23,0.0272373540856031,0.0103761348897536
278,9,23,0.00233463035019455,0.0109712367437247
279,9,23,0.00184634164950027,0.00886549172198062
280,9,23,0.00205996795605402,0.00822461280231937
281,9,23,0.0187685969329366,0.00817883573662928
282,9,23,0.00277714198519875,0.00784313725490196
283,9,23,0.00234988937209125,0.00720225833524071
284,9,23,0.0839246204318303,0.00785839627679866
285,9,23,0.0440680552376593,0.00775158312352178
286,9,23,0.0114137483787289,0.00814831769283589
287,9,23,0.0205233844510567,0.00827038986800946
288,9,23,0.0470740825513085,0.00952162966353857
272,10,23,0.00196841382467384,0.00804150453955901
273,10,23,0.00178530556191348,0.0105897611963073
274,10,23,0.00234988937209125,0.00820935378042268
275,10,23,0.00202944991226062,0.00775158312352178
276,10,23,0.00207522697795071,0.00793469138628214
277,10,23,0.00361638818951705,0.00791943236438544
278,10,23,0.00651560234988937,0.00798046845197223
279,10,23,0.00221255817502098,0.00721751735713741
280,10,23,0.00204470893415732,0.00782787823300526
281,10,23,0.00216678110933089,0.0076752880140383
282,10,23,0.00234988937209125,0.016937514305333
283,10,23,0.00331120775158312,0.00775158312352178
284,10,23,0.0453040360112917,0.00764476997024491
285,10,23,0.00195315480277714,0.00822461280231937
286,10,23,0.00193789578088045,0.00801098649576562
287,10,23,0.0110322728313115,0.00817883573662928
273,11,23,0.00225833524071107,0.00801098649576562
274,11,23,0.00247196154726482,0.00778210116731518
275,11,23,0.00247196154726482,0.00746166170748455
276,11,23,0.00152590218966964,0.00813305867093919
277,11,23,0.0309758144502937,0.00759899290455482
278,11,23,0.00190737773708705,0.00903334096284428
279,11,23,0.00236514839398795,0.0117189288166629
280,11,23,0.00222781719691768,0.00791943236438544
281,11,23,0.00227359426260777,0.0100251773861295
282,11,23,0.00242618448157473,0.00788891432059205
283,11,23,0.00205996795605402,0.00784313725490196
284,11,23,0.00184634164950027,0.0154573891813535
285,11,23,0.00161745632104982,0.00796520943007553
286,11,23,0.00462348363469902,0.007690547035935
287,11,23,0.0149385824368658,0.00764476997024491
273,12,23,0.00224307621881437,0.0106202792401007
274,12,23,0.00210574502174411,0.0101930266269932
275,12,23,0.00491340505073625,0.00764476997024491
276,12,23,0.00205996795605402,0.00837720302128634
277,12,23,0.00202944991226062,0.00787365529869535
278,12,23,0.00225833524071107,0.00796520943007553
279,12,23,0.00195315480277714,0.00778210116731518
280,12,23,0.00227359426260777,0.00807202258335241
281,12,23,0.00233463035019455,0.00872816052491035
282,12,23,0.00263981078812848,0.0198367284657053
283,12,23,0.0021515220874342,0.0076600289921416
284,12,23,0.00204470893415732,0.00787365529869535
285,12,23,0.00181582360570687,0.00953688868543526
286,12,23,0.00205996795605402,0.00799572747386892
275,13,23,0.00233463035019455,0.0371404592965591
276,13,23,0.0526436255436027,0.00706492713817044
277,13,23,0.024124513618677,0.0129549095902953
278,13,23,0.00219729915312428,0.00822461280231937
279,13,23,0.00189211871519036,0.00778210116731518
280,13,23,0.0121309224078737,0.00732433051041428
281,13,23,0.00323491264209964,0.0072632944228275
282,13,23,0.00190737773708705,0.00807202258335241
283,13,23,0.0265506981002518,0.00770580605783169
284,13,23,0.00869764248111696,0.00755321583886473
285,13,23,0.00248722056916152,0.00712596322575723
276,14,23,0.0567177843900206,0.00793469138628214
277,14,23,0.00204470893415732,0.00970473792629892
278,14,23,0.00180056458381018,0.0156862745098039
279,14,23,0.00216678110933089,0.00743114366369116
280,14,23,0.0046845197222858,0.0089723048752575
281,14,23,0.00617990386816205,0.00927748531319142
282,14,23,0.0021210040436408,0.00779736018921187
283,14,23,0.00201419089036393,0.00779736018921187
284,14,23,0.00193789578088045,0.0183413443198291
285,14,23,0.00201419089036393,0.00820935378042268
279,15,23,0.00180056458381018,0.012466620889601
280,15,23,0.00195315480277714,0.010757610437171
281,15,23,0.00222781719691768,0.00782787823300526
282,15,23,0.00250247959105821,0.00813305867093919
283,15,23,0.00209048599984741,0.0182345311665522
278,0,24,0.00163271534294652,0.0122377355611505
279,0,24,0.00218204013122759,0.0353398947127489
280,0,24,0.0305027847714961,0.0117647058823529
272,1,24,0.00440985732814527,0.00752269779507134
273,1,24,0.0016937514305333,0.00987258716716258
274,1,24,0.00184634164950027,0.00770580605783169
275,1,24,0.0443274586099031,0.0118715190356298
276,1,24,0.0205844205386435,0.00758373388265812
277,1,24,0.00712596322575723,0.0109407186999313
278,1,24,0.00202944991226062,0.00785839627679866
279,1,24,0.0016937514305333,0.00886549172198062
280,1,24,0.00178530556191348,0.020706492713817
281,1,24,0.00228885328450446,0.00787365529869535
282,1,24,0.00239566643778134,0.0147096971084154
283,1,24,0.00248722056916152,0.00787365529869535
284,1,24,0.00199893186846723,0.00843823910887312
285,1,24,0.0021210040436408,0.00820935378042268
286,1,24,0.00244144350347143,0.00761425192645151
287,1,24,0.0579842832074464,0.00883497367818723
288,1,24,0.00695811398489357,0.0196993972686351
289,1,24,0.00233463035019455,0.017944609750515
271,2,24,0.0539101243610285,0.0196078431372549
272,2,24,0.0516060120546273,0.0304875257495994
273,2,24,0.0128633554589151,0.0081177996490425
274,2,24,0.0221103227283131,0.00733958953231098
275,2,24,0.0196841382467384,0.00749217975127794
276,2,24,0.00186160067139696,0.0081177996490425
277,2,24,0.0126955062180514,0.00787365529869535
278,2,24,0.0171358815899901,0.00761425192645151
279,2,24,0.00230411230640116,0.00733958953231098
280,2,24,0.00184634164950027,0.00733958953231098
281,2,24,0.00201419089036393,0.00801098649576562
282,2,24,0.0126039520866712,0.00794995040817884
283,2,24,0.029755092698558,0.00738536659800107
284,2,24,0.00447089341573205,0.00752269779507134
285,2,24,0.00248722056916152,0.0145723659113451
286,2,24,0.00225833524071107,0.00750743877317464
287,2,24,0.00209048599984741,0.00779736018921187
288,2,24,0.00222781719691768,0.00888075074387732
289,2,24,0.00233463035019455,0.0107728694590677
270,3,24,0.104753185320821,0.0174868390936141
271,3,24,0.0244144350347143,0.0222476539253834
272,3,24,0.00202944991226062,0.00955214770733196
273,3,24,0.00234988937209125,0.00949111161974517
274,3,24,0.00926222629129473,0.0076752880140383
275,3,24,0.013321126115816,0.00787365529869535
276,3,24,0.00205996795605402,0.00798046845197223
277,3,24,0.0256504158083467,0.00770580605783169
278,3,24,0.00242618448157473,0.00746166170748455
279,3,24,0.00418097199969482,0.00781261921110857
280,3,24,0.00283817807278553,0.00770580605783169
281,3,24,0.00729381246662089,0.00770580605783169
282,3,24,0.0126192111085679,0.0332951857785916
283,3,24,0.0399938963912413,0.00975051499198901
284,3,24,0.15066758220798,0.0104219119554437
285,3,24,0.0134431982909895,0.00759899290455482
286,3,24,0.028549629968719,0.00804150453955901
287,3,24,0.00410467689021134,0.00952162966353857
288,3,24,0.0279545281147478,0.00732433051041428
289,3,24,0.0495918211642634,0.0122377355611505
269,4,24,0.101167315175097,0.0323491264209964
270,4,24,0.147997253376059,0.0283665217059586
271,4,24,0.0141603723201343,0.00778210116731518
272,4,24,0.0076752880140383,0.00877393759060044
273,4,24,0.0458075837338827,0.00888075074387732
274,4,24,0.00210574502174411,0.00793469138628214
275,4,24,0.0021515220874342,0.0156710154879072
276,4,24,0.00201419089036393,0.00747692072938125
277,4,24,0.00750743877317464,0.0076752880140383
278,4,24,0.0226749065384909,0.00944533455405508
279,4,24,0.0021210040436408,0.0180056458381018
280,4,24,0.00164797436484321,0.00773632410162509
281,4,24,0.00184634164950027,0.0112153810940719
282,4,24,0.00201419089036393,0.00799572747386892
283,4,24,0.0617532616159304,0.00746166170748455
284,4,24,0.00279240100709545,0.00750743877317464
285,4,24,0.00173952849622339,0.00903334096284428
286,4,24,0.0130006866559854,0.00770580605783169
287,4,24,0.0178377965972381,0.00793469138628214
288,4,24,0.00193789578088045,0.00794995040817884
289,4,24,0.00173952849622339,0.00839246204318303
268,5,24,0.0226443884946975,0.0190890363927672
269,5,24,0.0627450980392157,0.00906385900663768
270,5,24,0.0867017624170291,0.0213931486991684
271,5,24,0.0301518272678721,0.00761425192645151
272,5,24,0.0153047989623865,0.0232089723048753
273,5,24,0.0046997787441825,0.021515220874342
274,5,24,0.00344853894865339,0.0115205615320058
275,5,24,0.00646982528419928,0.00752269779507134
276,5,24,0.0603341725795377,0.00987258716716258
277,5,24,0.0021210040436408,0.0206301976043336
278,5,24,0.0100556954299229,0.00778210116731518
279,5,24,0.00198367284657053,0.0072327763790341
280,5,24,0.00193789578088045,0.00772106507972839
281,5,24,0.00222781719691768,0.0118715190356298
282,5,24,0.00227359426260777,0.00802624551766232
283,5,24,0.00177004654001678,0.00770580605783169
284,5,24,0.0699320973525597,0.00747692072938125
285,5,24,0.00227359426260777,0.0107118333714809
286,5,24,0.00233463035019455,0.00785839627679866
287,5,24,0.00216678110933089,0.0076752880140383
288,5,24,0.00198367284657053,0.00753795681696803
289,5,24,0.0021362630655375,0.00755321583886473
269,6,24,0.00465400167849241,0.0081025406271458
270,6,24,0.00645456626230259,0.00788891432059205
271,6,24,0.0021210040436408,0.0107423514152743
272,6,24,0.0025482566567483,0.00744640268558785
273,6,24,0.0661326009002823,0.0196231021591516
274,6,24,0.00205996795605402,0.0072480354009308
275,6,24,0.00228885328450446,0.00788891432059205
276,6,24,0.00228885328450446,0.00817883573662928
277,6,24,0.00189211871519036,0.00872816052491035
278,6,24,0.0305027847714961,0.0113527122911421
279,6,24,0.0150148775463493,0.00801098649576562
280,6,24,0.00186160067139696,0.00819409475852598
281,6,24,0.0136110475318532,0.007690547035935
282,6,24,0.00599679560540169,0.0120851453421836
283,6,24,0.0055237659266041,0.00924696726939803
284,6,24,0.00187685969329366,0.00813305867093919
285,6,24,0.00161745632104982,0.00743114366369116
286,6,24,0.00158693827725643,0.00729381246662089
287,6,24,0.00238040741588464,0.00889600976577401
288,6,24,0.00265506981002518,0.00802624551766232
289,6,24,0.00186160067139696,0.00793469138628214
270,7,24,0.00241092545967803,0.0143282215609979
271,7,24,0.0021210040436408,0.0106202792401007
272,7,24,0.00196841382467384,0.0121461814297704
273,7,24,0.00271610589761196,0.00776684214541848
274,7,24,0.00277714198519875,0.00799572747386892
275,7,24,0.0157015335317006,0.00935378042267491
276,7,24,0.0222476539253834,0.0127260242618448
277,7,24,0.0180514229037919,0.00798046845197223
278,7,24,0.00758373388265812,0.0080872816052491
279,7,24,0.0111848630502785,0.00761425192645151
280,7,24,0.00177004654001678,0.00772106507972839
281,7,24,0.00239566643778134,0.00784313725490196
282,7,24,0.00218204013122759,0.00816357671473259
283,7,24,0.0113832303349355,0.00801098649576562
284,7,24,0.0130464637216754,0.0199282825970855
285,7,24,0.00248722056916152,0.00793469138628214
286,7,24,0.00921644922560464,0.00790417334248875
287,7,24,0.00921644922560464,0.0102235446707866
288,7,24,0.0517280842298009,0.0139314869916838
270,8,24,0.00253299763485161,0.00807202258335241
271,8,24,0.0174258030060273,0.0188754100862135
272,8,24,0.00248722056916152,0.0121461814297704
273,8,24,0.00190737773708705,0.00764476997024491
274,8,24,0.00202944991226062,0.013824673838407
275,8,24,0.0285801480125124,0.00901808194094758
276,8,24,0.011612115663386,0.01025406271458
277,8,24,0.00183108262760357,0.0220035095750362
278,8,24,0.00239566643778134,0.0112153810940719
279,8,24,0.0228122377355611,0.00772106507972839
280,8,24,0.00198367284657053,0.00802624551766232
281,8,24,0.00280766002899214,0.0165407797360189
282,8,24,0.148149843595026,0.0187380788891432
283,8,24,0.00312809948882277,0.00758373388265812
284,8,24,0.0227817196917678,0.0110475318532082
285,8,24,0.0102845807583734,0.00776684214541848
286,8,24,0.0244907301441978,0.00820935378042268
287,8,24,0.00398260471503777,0.0155642023346304
288,8,24,0.00488288700694285,0.00776684214541848
271,9,24,0.00187685969329366,0.0157015335317006
272,9,24,0.0880750743877318,0.00747692072938125
273,9,24,0.00656137941557946,0.00799572747386892
274,9,24,0.0173647669184405,0.00778210116731518
275,9,24,0.0126802471961547,0.00776684214541848
276,9,24,0.0234683756771191,0.00790417334248875
277,9,24,0.00816357671473259,0.00744640268558785
278,9,24,0.00538643472953384,0.0080872816052491
279,9,24,0.0133974212252995,0.00775158312352178
280,9,24,0.00563057907988098,0.00793469138628214
281,9,24,0.00247196154726482,0.00756847486076143
282,9,24,0.0852521553368429,0.00781261921110857
283,9,24,0.00697337300679027,0.00750743877317464
284,9,24,0.00622568093385214,0.00781261921110857
285,9,24,0.0021362630655375,0.0081025406271458
286,9,24,0.00210574502174411,0.0076752880140383
287,9,24,0.00221255817502098,0.007690547035935
288,9,24,0.00157167925535973,0.00756847486076143
272,10,24,0.00219729915312428,0.00804150453955901
273,10,24,0.00717174029144732,0.00738536659800107
274,10,24,0.00245670252536812,0.00753795681696803
275,10,24,0.00262455176623178,0.00814831769283589
276,10,24,0.00230411230640116,0.00775158312352178
277,10,24,0.00181582360570687,0.00700389105058366
278,10,24,0.00196841382467384,0.00970473792629892
279,10,24,0.00219729915312428,0.00755321583886473
280,10,24,0.00227359426260777,0.00761425192645151
281,10,24,0.0120241092545968,0.00779736018921187
282,10,24,0.0217746242465858,0.00785839627679866
283,10,24,0.0127718013275349,0.00823987182421607
284,10,24,0.00225833524071107,0.00778210116731518
285,10,24,0.00260929274433509,0.00782787823300526
286,10,24,0.00195315480277714,0.00747692072938125
287,10,24,0.0103608758678569,0.00833142595559625
272,11,24,0.0311589227130541,0.00740062561989776
273,11,24,0.0194247348744945,0.00775158312352178
274,11,24,0.00602731364919509,0.0076752880140383
275,11,24,0.00473029678797589,0.00738536659800107
276,11,24,0.00184634164950027,0.00784313725490196
277,11,24,0.00219729915312428,0.00796520943007553
278,11,24,0.00231937132829786,0.00796520943007553
279,11,24,0.0436560616464485,0.00798046845197223
280,11,24,0.00219729915312428,0.00857557030594339
281,11,24,0.00202944991226062,0.00848401617456321
282,11,24,0.046494239719234,0.00801098649576562
283,11,24,0.00636301213092241,0.00785839627679866
284,11,24,0.00146486610208286,0.00762951094834821
285,11,24,0.00694285496299687,0.00801098649576562
286,11,24,0.00267032883192187,0.00833142595559625
273,12,24,0.00219729915312428,0.00775158312352178
274,12,24,0.0021515220874342,0.00788891432059205
275,12,24,0.00207522697795071,0.0114290074006256
276,12,24,0.00520332646677348,0.01196307316701
277,12,24,0.0029907682917525,0.00755321583886473
278,12,24,0.0209964141298543,0.00787365529869535
279,12,24,0.00976577401388571,0.00801098649576562
280,12,24,0.00978103303578241,0.00758373388265812
281,12,24,0.002563515678645,0.00801098649576562
282,12,24,0.00190737773708705,0.0108339055466545
283,12,24,0.00260929274433509,0.0119935912108034
284,12,24,0.00196841382467384,0.0133516441596094
285,12,24,0.002563515678645,0.00900282291905089
286,12,24,0.00178530556191348,0.00750743877317464
274,13,24,0.00207522697795071,0.00752269779507134
275,13,24,0.00177004654001678,0.00733958953231098
276,13,24,0.00238040741588464,0.0108644235904479
277,13,24,0.063431754024567,0.00988784618905928
278,13,24,0.0346684977492943,0.0167849240863661
279,13,24,0.0201876859693294,0.00820935378042268
280,13,24,0.00151064316777295,0.00772106507972839
281,13,24,0.00221255817502098,0.0259098191805905
282,13,24,0.00250247959105821,0.0133516441596094
283,13,24,0.00250247959105821,0.0136263065537499
284,13,24,0.00160219729915312,0.00729381246662089
285,13,24,0.00239566643778134,0.007690547035935
276,14,24,0.00227359426260777,0.00775158312352178
277,14,24,0.00222781719691768,0.0168307011520562
278,14,24,0.00209048599984741,0.00953688868543526
279,14,24,0.00245670252536812,0.0146639200427253
280,14,24,0.00221255817502098,0.00915541313801785
281,14,24,0.00216678110933089,0.00759899290455482
282,14,24,0.00199893186846723,0.00686655985351339
283,14,24,0.00485236896314946,0.00805676356145571
284,14,24,0.0229953459983215,0.00817883573662928
278,15,24,0.00234988937209125,0.00796520943007553
279,15,24,0.00186160067139696,0.0139467460135805
280,15,24,0.0131837949187457,0.00814831769283589
281,15,24,0.00289921416037232,0.0089723048752575
282,15,24,0.029556725413901,0.0080872816052491
283,15,24,0.00247196154726482,0.00956740672922866
284,15,24,0.00218204013122759,0.007690547035935
277,0,25,0.0719615472648203,0.0126497291523613
278,0,25,0.0149538414587625,0.00827038986800946
279,0,25,0.0085145342183566,0.0081177996490425
280,0,25,0.0034027618829633,0.00837720302128634
281,0,25,0.00225833524071107,0.0167238879987793
282,0,25,0.00193789578088045,0.00796520943007553
272,1,25,0.00651560234988937,0.0147096971084154
273,1,25,0.00227359426260777,0.0182192721446555
274,1,25,0.00262455176623178,0.00779736018921187
275,1,25,0.00224307621881437,0.0140840772106508
276,1,25,0.00143434805828946,0.00805676356145571
277,1,25,0.0516823071641108,0.0141145952544442
278,1,25,0.00280766002899214,0.0161593041886015
279,1,25,0.0274357213702602,0.0142977035172045
280,1,25,0.00210574502174411,0.00807202258335241
281,1,25,0.00180056458381018,0.00775158312352178
282,1,25,0.00190737773708705,0.00717174029144732
283,1,25,0.00227359426260777,0.00794995040817884
284,1,25,0.00193789578088045,0.00840772106507973
285,1,25,0.00201419089036393,0.0204623483634699
286,1,25,0.0205386434729534,0.00750743877317464
287,1,25,0.00260929274433509,0.0147554741741054
288,1,25,0.00242618448157473,0.0124513618677043
289,1,25,0.00247196154726482,0.00782787823300526
290,1,25,0.0021362630655375,0.00759899290455482
270,2,25,0.115205615320058,0.00874341954680705
271,2,25,0.00248722056916152,0.0072480354009308
272,2,25,0.0771953917753872,0.00776684214541848
273,2,25,0.0158236057068742,0.00785839627679866
274,2,25,0.00772106507972839,0.007690547035935
275,2,25,0.00161745632104982,0.00759899290455482
276,2,25,0.00976577401388571,0.00802624551766232
277,2,25,0.00508125429159991,0.0200961318379492
278,2,25,0.00170901045243,0.010757610437171
279,2,25,0.021515220874342,0.0124513618677043
280,2,25,0.0580910963607233,0.007690547035935
281,2,25,0.0329594872968643,0.00854505226215
282,2,25,0.0111238269626917,0.00796520943007553
283,2,25,0.00189211871519036,0.00781261921110857
284,2,25,0.0021210040436408,0.0076752880140383
285,2,25,0.00227359426260777,0.00833142595559625
286,2,25,0.00244144350347143,0.0101625085831998
287,2,25,0.00205996795605402,0.0144655527580682
288,2,25,0.00190737773708705,0.00920119020370794
289,2,25,0.0016937514305333,0.00794995040817884
290,2,25,0.00231937132829786,0.00772106507972839
291,2,25,0.00224307621881437,0.023071641107805
270,3,25,0.0280003051804379,0.0296482795452811
271,3,25,0.0116884107728695,0.0175783932249943
272,3,25,0.00433356221866178,0.0148470283054856
273,3,25,0.00155642023346304,0.00807202258335241
274,3,25,0.00157167925535973,0.0158541237506676
275,3,25,0.00228885328450446,0.0105134660868238
276,3,25,0.026688029297322,0.0085297932402533
277,3,25,0.00170901045243,0.00735484855420768
278,3,25,0.00201419089036393,0.0140993362325475
279,3,25,0.00238040741588464,0.015030136568246
280,3,25,0.00209048599984741,0.0137026016632334
281,3,25,0.00184634164950027,0.00721751735713741
282,3,25,0.00228885328450446,0.0197451743343252
283,3,25,0.0531929503318837,0.0137941557946136
284,3,25,0.00201419089036393,0.0100099183642329
285,3,25,0.00161745632104982,0.00953688868543526
286,3,25,0.00167849240863661,0.00735484855420768
287,3,25,0.0387426565957122,0.00822461280231937
288,3,25,0.0316472114137484,0.0161287861448081
289,3,25,0.0841992828259709,0.00779736018921187
290,3,25,0.00247196154726482,0.0110780498970016
291,3,25,0.00178530556191348,0.00840772106507973
269,4,25,0.0340733958953231,0.032974746318761
270,4,25,0.079468986037995,0.0655985351338979
271,4,25,0.00788891432059205,0.00820935378042268
272,4,25,0.00175478751812009,0.0155184252689403
273,4,25,0.0170138094148165,0.00764476997024491
274,4,25,0.0407415884641794,0.00762951094834821
275,4,25,0.0021515220874342,0.0200350957503624
276,4,25,0.00192263675898375,0.00794995040817884
277,4,25,0.0942702372777905,0.00788891432059205
278,4,25,0.0138551918822004,0.00788891432059205
279,4,25,0.0353704127565423,0.00924696726939803
280,4,25,0.0592813000686656,0.0174258030060273
281,4,25,0.012664988174258,0.00785839627679866
282,4,25,0.00581368734264134,0.00892652780956741
283,4,25,0.00198367284657053,0.00941481651026169
284,4,25,0.00183108262760357,0.00694285496299687
285,4,25,0.00253299763485161,0.00820935378042268
286,4,25,0.0097962920576791,0.0081177996490425
287,4,25,0.0103456168459602,0.00796520943007553
288,4,25,0.00241092545967803,0.00740062561989776
289,4,25,0.00599679560540169,0.00788891432059205
290,4,25,0.00268558785381857,0.0133363851377127
268,5,25,0.0291752498664836,0.00730907148851759
269,5,25,0.00190737773708705,0.00749217975127794
270,5,25,0.0192263675898375,0.00845349813076982
271,5,25,0.0269321736476692,0.00779736018921187
272,5,25,0.0621347371633478,0.00737010757610437
273,5,25,0.00671396963454643,0.00730907148851759
274,5,25,0.0017242694743267,0.0122224765392538
275,5,25,0.0021210040436408,0.00964370183871214
276,5,25,0.00404364080262455,0.00775158312352178
277,5,25,0.0180819409475853,0.00944533455405508
278,5,25,0.00210574502174411,0.00741588464179446
279,5,25,0.00231937132829786,0.00796520943007553
280,5,25,0.00245670252536812,0.00959792477302205
281,5,25,0.00195315480277714,0.00837720302128634
282,5,25,0.00187685969329366,0.0068207827878233
283,5,25,0.00201419089036393,0.0180514229037919
284,5,25,0.00189211871519036,0.00822461280231937
285,5,25,0.00178530556191348,0.00740062561989776
286,5,25,0.00744640268558785,0.0102998397802701
287,5,25,0.0392309452964065,0.0089417868314641
288,5,25,0.00241092545967803,0.00917067215991455
289,5,25,0.0017242694743267,0.00924696726939803
290,5,25,0.00199893186846723,0.00697337300679027
269,6,25,0.0226596475165942,0.0195620660715648
270,6,25,0.0194399938963912,0.0301365682459754
271,6,25,0.00329594872968643,0.00871290150301366
272,6,25,0.00192263675898375,0.0139772640573739
273,6,25,0.00192263675898375,0.0107118333714809
274,6,25,0.00205996795605402,0.00753795681696803
275,6,25,0.00447089341573205,0.00733958953231098
276,6,25,0.0110170138094148,0.00744640268558785
277,6,25,0.060013733119707,0.0126955062180514
278,6,25,0.106736858167391,0.00915541313801785
279,6,25,0.0110475318532082,0.0172732127870604
280,6,25,0.00218204013122759,0.00804150453955901
281,6,25,0.0017242694743267,0.00941481651026169
282,6,25,0.0021362630655375,0.00796520943007553
283,6,25,0.00451667048142214,0.00744640268558785
284,6,25,0.0021362630655375,0.00793469138628214
285,6,25,0.00201419089036393,0.00830090791180285
286,6,25,0.00193789578088045,0.00791943236438544
287,6,25,0.016083009079118,0.0076752880140383
288,6,25,0.00225833524071107,0.00775158312352178
289,6,25,0.00463874265659571,0.00807202258335241
269,7,25,0.0376287479972534,0.00761425192645151
270,7,25,0.00177004654001678,0.00837720302128634
271,7,25,0.0021210040436408,0.0123598077363241
272,7,25,0.00186160067139696,0.0134279392690929
273,7,25,0.0200198367284657,0.0081025406271458
274,7,25,0.00234988937209125,0.0111543450064851
275,7,25,0.00193789578088045,0.0114137483787289
276,7,25,0.070771343556878,0.0143892576485847
277,7,25,0.032822156099794,0.00770580605783169
278,7,25,0.00746166170748455,0.0129549095902953
279,7,25,0.00944533455405508,0.00819409475852598
280,7,25,0.00198367284657053,0.00880445563439384
281,7,25,0.00193789578088045,0.00988784618905928
282,7,25,0.00248722056916152,0.00793469138628214
283,7,25,0.00227359426260777,0.00801098649576562
284,7,25,0.00166323338673991,0.00820935378042268
285,7,25,0.00799572747386892,0.00788891432059205
286,7,25,0.00721751735713741,0.00773632410162509
287,7,25,0.00239566643778134,0.00819409475852598
288,7,25,0.16064698252842,0.00845349813076982
289,7,25,0.00189211871519036,0.00840772106507973
270,8,25,0.00244144350347143,0.00802624551766232
271,8,25,0.00224307621881437,0.0100709544518196
272,8,25,0.00164797436484321,0.0098115510795758
273,8,25,0.00645456626230259,0.0085297932402533
274,8,25,0.0158083466849775,0.0195315480277714
275,8,25,0.00199893186846723,0.00816357671473259
276,8,25,0.00184634164950027,0.00823987182421607
277,8,25,0.0017242694743267,0.00828564888990616
278,8,25,0.0473640039673457,0.00772106507972839
279,8,25,0.00221255817502098,0.00764476997024491
280,8,25,0.00180056458381018,0.0187380788891432
281,8,25,0.0016937514305333,0.00770580605783169
282,8,25,0.0106660563057908,0.00776684214541848
283,8,25,0.0183566033417258,0.0270847638666361
284,8,25,0.0174105439841306,0.00891126878767071
285,8,25,0.0608834973678187,0.00776684214541848
286,8,25,0.0869153887235828,0.0138551918822004
287,8,25,0.0129854276340887,0.007690547035935
288,8,25,0.00210574502174411,0.00868238345922026
271,9,25,0.00181582360570687,0.00883497367818723
272,9,25,0.0021210040436408,0.00794995040817884
273,9,25,0.0182803082322423,0.00779736018921187
274,9,25,0.0051117723353933,0.00776684214541848
275,9,25,0.0184939345387961,0.0080872816052491
276,9,25,0.00177004654001678,0.00793469138628214
277,9,25,0.00236514839398795,0.0093690394445716
278,9,25,0.00195315480277714,0.0100862134737163
279,9,25,0.00199893186846723,0.00816357671473259
280,9,25,0.00187685969329366,0.00830090791180285
281,9,25,0.00198367284657053,0.00862134737163348
282,9,25,0.00227359426260777,0.00929274433508812
283,9,25,0.00216678110933089,0.0111238269626917
284,9,25,0.00219729915312428,0.00877393759060044
285,9,25,0.00160219729915312,0.00753795681696803
286,9,25,0.00177004654001678,0.00802624551766232
287,9,25,0.00158693827725643,0.00848401617456321
288,9,25,0.0237125200274662,0.0158999008163577
271,10,25,0.0250095368886854,0.00758373388265812
272,10,25,0.00192263675898375,0.00764476997024491
273,10,25,0.00271610589761196,0.00770580605783169
274,10,25,0.00166323338673991,0.00753795681696803
275,10,25,0.0136110475318532,0.00759899290455482
276,10,25,0.00918593118181125,0.00944533455405508
277,10,25,0.0548104066529335,0.0216067750057221
278,10,25,0.00164797436484321,0.00817883573662928
279,10,25,0.00187685969329366,0.00750743877317464
280,10,25,0.0569619287403677,0.00762951094834821
281,10,25,0.0242618448157473,0.00807202258335241
282,10,25,0.00216678110933089,0.00776684214541848
283,10,25,0.00221255817502098,0.0109712367437247
284,10,25,0.0281681544213016,0.0102388036926833
285,10,25,0.0608072022583352,0.00764476997024491
286,10,25,0.00196841382467384,0.00799572747386892
287,10,25,0.0021515220874342,0.00738536659800107
272,11,25,0.0017242694743267,0.00807202258335241
273,11,25,0.0327000839246204,0.0108339055466545
274,11,25,0.00238040741588464,0.00831616693369955
275,11,25,0.0503242542153048,0.00805676356145571
276,11,25,0.00216678110933089,0.00717174029144732
277,11,25,0.00463874265659571,0.00793469138628214
278,11,25,0.0173037308308537,0.00839246204318303
279,11,25,0.00242618448157473,0.00849927519645991
280,11,25,0.00227359426260777,0.0076752880140383
281,11,25,0.00178530556191348,0.00735484855420768
282,11,25,0.00216678110933089,0.00817883573662928
283,11,25,0.0021362630655375,0.00967421988250553
284,11,25,0.00799572747386892,0.0167696650644694
285,11,25,0.00244144350347143,0.011612115663386
286,11,25,0.00221255817502098,0.00761425192645151
273,12,25,0.00234988937209125,0.00827038986800946
274,12,25,0.00195315480277714,0.0106355382619974
275,12,25,0.00207522697795071,0.00994888227664607
276,12,25,0.00198367284657053,0.0276340886549172
277,12,25,0.00189211871519036,0.0138399328603037
278,12,25,0.0525368123903258,0.0102998397802701
279,12,25,0.00260929274433509,0.00762951094834821
280,12,25,0.0183260852979324,0.00799572747386892
281,12,25,0.00309758144502937,0.00846875715266651
282,12,25,0.00183108262760357,0.00801098649576562
283,12,25,0.00219729915312428,0.0118410009918364
284,12,25,0.00233463035019455,0.0081025406271458
285,12,25,0.00196841382467384,0.0143129625391012
286,12,25,0.00192263675898375,0.00880445563439384
274,13,25,0.00236514839398795,0.0362859540703441
275,13,25,0.00227359426260777,0.011108567940795
276,13,25,0.00170901045243,0.0153505760280766
277,13,25,0.0773479819943542,0.0102845807583734
278,13,25,0.00196841382467384,0.00973525597009232
279,13,25,0.00210574502174411,0.00782787823300526
280,13,25,0.00151064316777295,0.00814831769283589
281,13,25,0.0942702372777905,0.0122377355611505
282,13,25,0.0232089723048753,0.0190280003051804
283,13,25,0.00270084687571527,0.0100404364080262
284,13,25,0.00727855344472419,0.00735484855420768
285,13,25,0.0021362630655375,0.00749217975127794
276,14,25,0.00247196154726482,0.0109102006561379
277,14,25,0.0016937514305333,0.00874341954680705
278,14,25,0.00163271534294652,0.00778210116731518
279,14,25,0.00201419089036393,0.0110627908751049
280,14,25,0.0025482566567483,0.00794995040817884
281,14,25,0.00183108262760357,0.014175631342031
282,14,25,0.0151064316777295,0.0164492256046387
283,14,25,0.00962844281681544,0.00730907148851759
284,14,25,0.00233463035019455,0.00747692072938125
278,15,25,0.00225833524071107,0.0142519264515145
279,15,25,0.0477454795147631,0.00846875715266651
280,15,25,0.0017242694743267,0.0132600900282292
281,15,25,0.00204470893415732,0.00807202258335241
282,15,25,0.00437933928435187,0.00779736018921187
277,0,26,0.0017242694743267,0.0132906080720226
278,0,26,0.0504310673685817,0.00784313725490196
279,0,26,0.00207522697795071,0.0076600289921416
280,0,26,0.00207522697795071,0.00770580605783169
281,0,26,0.0609292744335088,0.0184634164950027
271,1,26,0.0180361638818952,0.0112001220721752
272,1,26,0.0215304798962387,0.0155642023346304
273,1,26,0.00225833524071107,0.0162661173418784
274,1,26,0.00236514839398795,0.00990310521095598
275,1,26,0.0374761577782864,0.00836194399938964
276,1,26,0.0145113298237583,0.00781261921110857
277,1,26,0.00202944991226062,0.00733958953231098
278,1,26,0.00228885328450446,0.00758373388265812
279,1,26,0.00178530556191348,0.00787365529869535
280,1,26,0.00201419089036393,0.00830090791180285
281,1,26,0.00209048599984741,0.00758373388265812
282,1,26,0.00889600976577401,0.00761425192645151
283,1,26,0.0228427557793545,0.00749217975127794
284,1,26,0.0205844205386435,0.00796520943007553
285,1,26,0.118760967421988,0.00781261921110857
286,1,26,0.0029755092698558,0.00772106507972839
287,1,26,0.0021210040436408,0.0153200579842832
288,1,26,0.00196841382467384,0.00743114366369116
289,1,26,0.0265049210345617,0.00773632410162509
290,1,26,0.00195315480277714,0.00758373388265812
291,1,26,0.00161745632104982,0.0137636377508202
292,1,26,0.00247196154726482,0.0137788967727169
270,2,26,0.0394445716029602,0.00886549172198062
271,2,26,0.0496986343175402,0.0151216906996262
272,2,26,0.00230411230640116,0.00761425192645151
273,2,26,0.00198367284657053,0.00799572747386892
274,2,26,0.00205996795605402,0.00788891432059205
275,2,26,0.00224307621881437,0.00753795681696803
276,2,26,0.00236514839398795,0.00794995040817884
277,2,26,0.00202944991226062,0.00787365529869535
278,2,26,0.0189669642175937,0.00817883573662928
279,2,26,0.00523384451056687,0.00752269779507134
280,2,26,0.00225833524071107,0.00747692072938125
281,2,26,0.00209048599984741,0.0076600289921416
282,2,26,0.0403295948729686,0.00793469138628214
283,2,26,0.0132295719844358,0.00735484855420768
284,2,26,0.0344853894865339,0.012664988174258
285,2,26,0.0137331197070268,0.00778210116731518
286,2,26,0.00491340505073625,0.00770580605783169
287,2,26,0.00161745632104982,0.0111238269626917
288,2,26,0.00195315480277714,0.0117799649042496
289,2,26,0.0021362630655375,0.00848401617456321
290,2,26,0.00964370183871214,0.00820935378042268
291,2,26,0.0185244525825895,0.0085297932402533
292,2,26,0.00178530556191348,0.00848401617456321
269,3,26,0.0129091325246052,0.0108186465247578
270,3,26,0.00457770656900893,0.0178835736629282
271,3,26,0.060318913557641,0.0121461814297704
272,3,26,0.00444037537193866,0.00833142595559625
273,3,26,0.00141908903639277,0.00924696726939803
274,3,26,0.0757763027389944,0.0072480354009308
275,3,26,0.00184634164950027,0.00764476997024491
276,3,26,0.0135957885099565,0.00801098649576562
277,3,26,0.0021515220874342,0.00740062561989776
278,3,26,0.00248722056916152,0.0177767605096513
279,3,26,0.00248722056916152,0.00871290150301366
280,3,26,0.00192263675898375,0.0081177996490425
281,3,26,0.00167849240863661,0.0148012512397955
282,3,26,0.0171969176775769,0.00746166170748455
283,3,26,0.0167849240863661,0.00830090791180285
284,3,26,0.0021515220874342,0.00790417334248875
285,3,26,0.00151064316777295,0.00958266575112535
286,3,26,0.00198367284657053,0.00802624551766232
287,3,26,0.0021362630655375,0.0113679713130388
288,3,26,0.00190737773708705,0.00787365529869535
289,3,26,0.0021515220874342,0.00727855344472419
290,3,26,0.00192263675898375,0.0072632944228275
291,3,26,0.00192263675898375,0.00817883573662928
292,3,26,0.00216678110933089,0.00804150453955901
268,4,26,0.00396734569314107,0.0119935912108034
269,4,26,0.0801251239795529,0.0157473105973907
270,4,26,0.0414740215152209,0.0102235446707866
271,4,26,0.104509040970474,0.0137331197070268
272,4,26,0.0244144350347143,0.00843823910887312
273,4,26,0.00177004654001678,0.00996414129854276
274,4,26,0.0104982070649271,0.00791943236438544
275,4,26,0.0272983901731899,0.00717174029144732
276,4,26,0.00202944991226062,0.00775158312352178
277,4,26,0.10249485008011,0.0111543450064851
278,4,26,0.00216678110933089,0.007690547035935
279,4,26,0.00173952849622339,0.0119172961013199
280,4,26,0.0456244754711223,0.00868238345922026
281,4,26,0.00234988937209125,0.0127260242618448
282,4,26,0.00167849240863661,0.00778210116731518
283,4,26,0.0012664988174258,0.00741588464179446
284,4,26,0.0436255436026551,0.007690547035935
285,4,26,0.00669871061264973,0.0143587396047913
286,4,26,0.0446021210040436,0.00788891432059205
287,4,26,0.054535744258793,0.0127870603494316
288,4,26,0.00180056458381018,0.0122224765392538
289,4,26,0.00170901045243,0.0122224765392538
290,4,26,0.00221255817502098,0.00904859998474098
291,4,26,0.00173952849622339,0.00791943236438544
268,5,26,0.147539482719158,0.0101625085831998
269,5,26,0.069764248111696,0.0140688181887541
270,5,26,0.0208743419546807,0.055741206988632
271,5,26,0.0046845197222858,0.0118257419699397
272,5,26,0.00440985732814527,0.00703440909437705
273,5,26,0.0151522087434195,0.0102235446707866
274,5,26,0.0105592431525139,0.014373998626688
275,5,26,0.00209048599984741,0.0101777676050965
276,5,26,0.00207522697795071,0.00788891432059205
277,5,26,0.0012970168612192,0.0132906080720226
278,5,26,0.0332341496910048,0.00740062561989776
279,5,26,0.00216678110933089,0.0081177996490425
280,5,26,0.00422674906538491,0.00744640268558785
281,5,26,0.00193789578088045,0.00735484855420768
282,5,26,0.00193789578088045,0.00718699931334401
283,5,26,0.00227359426260777,0.0146639200427253
284,5,26,0.00219729915312428,0.0144808117799649
285,5,26,0.00175478751812009,0.00750743877317464
286,5,26,0.00160219729915312,0.00720225833524071
287,5,26,0.00177004654001678,0.00746166170748455
288,5,26,0.0181124589913787,0.0123292896925307
289,5,26,0.010101472495613,0.00776684214541848
290,5,26,0.00183108262760357,0.013321126115816
269,6,26,0.00364690623331044,0.0202487220569162
270,6,26,0.0439917601281758,0.0294956893263142
271,6,26,0.0317845426108186,0.00747692072938125
272,6,26,0.00721751735713741,0.00778210116731518
273,6,26,0.00216678110933089,0.00827038986800946
274,6,26,0.00210574502174411,0.00822461280231937
275,6,26,0.011306935225452,0.0072327763790341
276,6,26,0.0255436026550698,0.00776684214541848
277,6,26,0.021515220874342,0.0081177996490425
278,6,26,0.0021210040436408,0.00781261921110857
279,6,26,0.0112153810940719,0.00927748531319142
280,6,26,0.0016937514305333,0.0093842984664683
281,6,26,0.00233463035019455,0.0160982681010147
282,6,26,0.00187685969329366,0.00807202258335241
283,6,26,0.00247196154726482,0.00759899290455482
284,6,26,0.00151064316777295,0.00743114366369116
285,6,26,0.00248722056916152,0.0155031662470436
286,6,26,0.00227359426260777,0.0081177996490425
287,6,26,0.00205996795605402,0.00801098649576562
288,6,26,0.00189211871519036,0.00779736018921187
289,6,26,0.00714122224765393,0.00733958953231098
290,6,26,0.00431830319676509,0.0229495689326314
269,7,26,0.0016937514305333,0.0155031662470436
270,7,26,0.00236514839398795,0.0182650492103456
271,7,26,0.00239566643778134,0.00830090791180285
272,7,26,0.0021210040436408,0.011612115663386
273,7,26,0.00177004654001678,0.00733958953231098
274,7,26,0.0112001220721752,0.00796520943007553
275,7,26,0.048203250171664,0.00828564888990616
276,7,26,0.00227359426260777,0.0115815976195926
277,7,26,0.00187685969329366,0.0149691004806592
278,7,26,0.00508125429159991,0.00747692072938125
279,7,26,0.0195925841153582,0.00799572747386892
280,7,26,0.00222781719691768,0.00822461280231937
281,7,26,0.00224307621881437,0.00871290150301366
282,7,26,0.0521705958648051,0.0193179217212177
283,7,26,0.0334019989318685,0.0151216906996262
284,7,26,0.00198367284657053,0.00836194399938964
285,7,26,0.00236514839398795,0.0119935912108034
286,7,26,0.00253299763485161,0.00749217975127794
287,7,26,0.00219729915312428,0.00758373388265812
288,7,26,0.0271610589761196,0.00823987182421607
289,7,26,0.00193789578088045,0.00817883573662928
290,7,26,0.00204470893415732,0.00807202258335241
270,8,26,0.0136263065537499,0.0317235065232319
271,8,26,0.00633249408712902,0.00833142595559625
272,8,26,0.0592660410467689,0.0121919584954604
273,8,26,0.00372320134279393,0.0260013733119707
274,8,26,0.0102388036926833,0.0110627908751049
275,8,26,0.0310978866254673,0.00817883573662928
276,8,26,0.00721751735713741,0.00740062561989776
277,8,26,0.00199893186846723,0.00791943236438544
278,8,26,0.00167849240863661,0.00784313725490196
279,8,26,0.00199893186846723,0.00790417334248875
280,8,26,0.00209048599984741,0.00872816052491035
281,8,26,0.00242618448157473,0.00802624551766232
282,8,26,0.00173952849622339,0.0122835126268406
283,8,26,0.0462348363469902,0.00778210116731518
284,8,26,0.00193789578088045,0.00779736018921187
285,8,26,0.00198367284657053,0.013870450904097
286,8,26,0.0428625925078202,0.00752269779507134
287,8,26,0.00737010757610437,0.00770580605783169
288,8,26,0.00910963607232776,0.0137636377508202
289,8,26,0.00392156862745098,0.0150911726558328
271,9,26,0.0453040360112917,0.00798046845197223
272,9,26,0.0156099794003204,0.00779736018921187
273,9,26,0.00498970016021973,0.00764476997024491
274,9,26,0.0309910734721904,0.00741588464179446
275,9,26,0.0395971618219272,0.00756847486076143
276,9,26,0.00494392309452964,0.0076752880140383
277,9,26,0.0157625696192874,0.00794995040817884
278,9,26,0.00219729915312428,0.00935378042267491
279,9,26,0.0697489890897993,0.0138551918822004
280,9,26,0.00186160067139696,0.00756847486076143
281,9,26,0.00222781719691768,0.0089570458533608
282,9,26,0.0671091783016709,0.00984206912336919
283,9,26,0.00209048599984741,0.0128633554589151
284,9,26,0.00160219729915312,0.0127260242618448
285,9,26,0.00181582360570687,0.0122224765392538
286,9,26,0.00236514839398795,0.00756847486076143
287,9,26,0.00242618448157473,0.00807202258335241
288,9,26,0.00151064316777295,0.0154573891813535
271,10,26,0.00210574502174411,0.00784313725490196
272,10,26,0.0435950255588617,0.00823987182421607
273,10,26,0.00346379797055009,0.00761425192645151
274,10,26,0.00202944991226062,0.0076752880140383
275,10,26,0.0162203402761883,0.00816357671473259
276,10,26,0.00349431601434348,0.00794995040817884
277,10,26,0.00592050049591821,0.00759899290455482
278,10,26,0.00183108262760357,0.00973525597009232
279,10,26,0.00190737773708705,0.016937514305333
280,10,26,0.00236514839398795,0.00891126878767071
281,10,26,0.00747692072938125,0.00822461280231937
282,10,26,0.0516975661860075,0.0140993362325475
283,10,26,0.00184634164950027,0.0076752880140383
284,10,26,0.00209048599984741,0.00775158312352178
285,10,26,0.0226443884946975,0.00788891432059205
286,10,26,0.00747692072938125,0.00814831769283589
287,10,26,0.00190737773708705,0.00740062561989776
272,11,26,0.00628671702143893,0.0206454566262303
273,11,26,0.00617990386816205,0.007690547035935
274,11,26,0.0431830319676509,0.007690547035935
275,11,26,0.00163271534294652,0.00752269779507134
276,11,26,0.00170901045243,0.0176089112687877
277,11,26,0.00196841382467384,0.00779736018921187
278,11,26,0.00228885328450446,0.0081025406271458
279,11,26,0.00219729915312428,0.00802624551766232
280,11,26,0.0115358205539025,0.0142061493858244
281,11,26,0.00363164721141375,0.00854505226215
282,11,26,0.00224307621881437,0.00796520943007553
283,11,26,0.00241092545967803,0.00805676356145571
284,11,26,0.0016937514305333,0.00772106507972839
285,11,26,0.00192263675898375,0.0183260852979324
286,11,26,0.00180056458381018,0.0076752880140383
273,12,26,0.00178530556191348,0.00791943236438544
274,12,26,0.0149080643930724,0.00778210116731518
275,12,26,0.146349279011215,0.00759899290455482
276,12,26,0.00347905699244678,0.0219729915312428
277,12,26,0.00173952849622339,0.00802624551766232
278,12,26,0.00166323338673991,0.00845349813076982
279,12,26,0.0587472343022812,0.00732433051041428
280,12,26,0.0226749065384909,0.00762951094834821
281,12,26,0.0339208056763561,0.00798046845197223
282,12,26,0.00332646677347982,0.00788891432059205
283,12,26,0.00862134737163348,0.00761425192645151
284,12,26,0.00198367284657053,0.00759899290455482
285,12,26,0.00239566643778134,0.0113527122911421
274,13,26,0.00228885328450446,0.0134279392690929
275,13,26,0.0021515220874342,0.0104676890211337
276,13,26,0.00189211871519036,0.00740062561989776
277,13,26,0.00222781719691768,0.00756847486076143
278,13,26,0.00238040741588464,0.00762951094834821
279,13,26,0.0410467689021134,0.0292668039978637
280,13,26,0.0173647669184405,0.00807202258335241
281,13,26,0.00205996795605402,0.0076600289921416
282,13,26,0.00210574502174411,0.0139009689478904
283,13,26,0.0046997787441825,0.00762951094834821
284,13,26,0.00648508430609598,0.00801098649576562
276,14,26,0.00222781719691768,0.00952162966353857
277,14,26,0.0229800869764248,0.00930800335698482
278,14,26,0.0209506370641642,0.00959792477302205
279,14,26,0.0107270923933776,0.0107728694590677
280,14,26,0.0153505760280766,0.00756847486076143
281,14,26,0.0491950865949493,0.00920119020370794
282,14,26,0.024933241779202,0.0089723048752575
278,15,26,0.00148012512397955,0.00910963607232776
280,15,26,0.00218204013122759,0.00759899290455482
281,15,26,0.00332646677347982,0.0098268101014725
272,1,27,0.0115053025101091,0.0150606546120394
273,1,27,0.00151064316777295,0.0218966964217594
274,1,27,0.0838635843442435,0.0169222552834363
275,1,27,0.00234988937209125,0.00790417334248875
276,1,27,0.00209048599984741,0.00735484855420768
277,1,27,0.00210574502174411,0.00804150453955901
278,1,27,0.0171206225680934,0.0117036697947662
279,1,27,0.00152590218966964,0.0156099794003204
280,1,27,0.00209048599984741,0.00816357671473259
281,1,27,0.00198367284657053,0.00823987182421607
282,1,27,0.034027618829633,0.00843823910887312
283,1,27,0.0280308232242313,0.00842298008697642
284,1,27,0.00923170824750134,0.00750743877317464
285,1,27,0.00195315480277714,0.00958266575112535
286,1,27,0.0012817578393225,0.0121919584954604
287,1,27,0.00207522697795071,0.0271457999542229
288,1,27,0.00202944991226062,0.0146334019989319
289,1,27,0.00350957503624018,0.00756847486076143
290,1,27,0.0525825894560159,0.00775158312352178
291,1,27,0.0235294117647059,0.00796520943007553
292,1,27,0.00228885328450446,0.0147554741741054
293,1,27,0.00204470893415732,0.00759899290455482
270,2,27,0.012115663385977,0.0109102006561379
271,2,27,0.00762951094834821,0.00773632410162509
272,2,27,0.00993362325474937,0.00793469138628214
273,2,27,0.00221255817502098,0.00764476997024491
274,2,27,0.00204470893415732,0.0192874036774243
275,2,27,0.00180056458381018,0.0076752880140383
276,2,27,0.0021515220874342,0.00755321583886473
277,2,27,0.00222781719691768,0.00956740672922866
278,2,27,0.00192263675898375,0.00831616693369955
279,2,27,0.00173952849622339,0.00756847486076143
280,2,27,0.00184634164950027,0.00785839627679866
281,2,27,0.00224307621881437,0.00794995040817884
282,2,27,0.00219729915312428,0.00773632410162509
283,2,27,0.00209048599984741,0.009399557488365
284,2,27,0.00157167925535973,0.00935378042267491
285,2,27,0.00224307621881437,0.00790417334248875
286,2,27,0.00253299763485161,0.0120851453421836
287,2,27,0.093186846723125,0.00837720302128634
288,2,27,0.00360112916762036,0.00953688868543526
289,2,27,0.0131990539406424,0.0180514229037919
290,2,27,0.0330815594720378,0.00828564888990616
291,2,27,0.00273136491950866,0.00755321583886473
292,2,27,0.00122072175173571,0.00750743877317464
293,2,27,0.00158693827725643,0.015579461356527
269,3,27,0.0123903257801175,0.00813305867093919
270,3,27,0.0021362630655375,0.00793469138628214
271,3,27,0.00657663843747616,0.014679179064622
272,3,27,0.0428931105516136,0.012115663385977
273,3,27,0.00158693827725643,0.00799572747386892
274,3,27,0.00204470893415732,0.0080872816052491
275,3,27,0.0105592431525139,0.00770580605783169
276,3,27,0.0235446707866026,0.00735484855420768
277,3,27,0.0195925841153582,0.0208743419546807
278,3,27,0.00930800335698482,0.0247653925383383
279,3,27,0.00242618448157473,0.00910963607232776
280,3,27,0.0409704737926299,0.00793469138628214
281,3,27,0.0236820019836728,0.00755321583886473
282,3,27,0.00177004654001678,0.00836194399938964
283,3,27,0.00230411230640116,0.0134889753566796
284,3,27,0.00204470893415732,0.00772106507972839
285,3,27,0.0302433813992523,0.00778210116731518
286,3,27,0.0102845807583734,0.015732051575494
287,3,27,0.00209048599984741,0.00978103303578241
288,3,27,0.00263981078812848,0.00794995040817884
289,3,27,0.00190737773708705,0.00744640268558785
290,3,27,0.0016937514305333,0.00787365529869535
291,3,27,0.00222781719691768,0.0081025406271458
292,3,27,0.00248722056916152,0.014877546349279
293,3,27,0.00227359426260777,0.00758373388265812
294,3,27,0.00177004654001678,0.0076752880140383
267,4,27,0.115297169451438,0.014679179064622
268,4,27,0.0328526741435874,0.00883497367818723
269,4,27,0.152117189288167,0.0111238269626917
270,4,27,0.00195315480277714,0.00856031128404669
271,4,27,0.000991836423285267,0.00796520943007553
272,4,27,0.00166323338673991,0.00790417334248875
273,4,27,0.0025787747005417,0.0175783932249943
274,4,27,0.00195315480277714,0.00752269779507134
275,4,27,0.00292973220416571,0.00804150453955901
276,4,27,0.00752269779507134,0.00828564888990616
277,4,27,0.00248722056916152,0.00798046845197223
278,4,27,0.00236514839398795,0.00753795681696803
279,4,27,0.00160219729915312,0.0107270923933776
280,4,27,0.00279240100709545,0.00819409475852598
281,4,27,0.00193789578088045,0.0105897611963073
282,4,27,0.0025787747005417,0.00775158312352178
283,4,27,0.00161745632104982,0.00762951094834821
284,4,27,0.00184634164950027,0.007690547035935
285,4,27,0.00181582360570687,0.00804150453955901
286,4,27,0.00187685969329366,0.0089570458533608
287,4,27,0.0619058518348974,0.00753795681696803
288,4,27,0.00148012512397955,0.00759899290455482
289,4,27,0.00221255817502098,0.0443427176317998
290,4,27,0.0021210040436408,0.00973525597009232
291,4,27,0.00192263675898375,0.00753795681696803
292,4,27,0.00151064316777295,0.00781261921110857
268,5,27,0.0369573510337987,0.0129091325246052
269,5,27,0.00251773861295491,0.012970168612192
270,5,27,0.0394903486686503,0.00956740672922866
271,5,27,0.0236209658960861,0.0126039520866712
272,5,27,0.0433661402304112,0.0140993362325475
273,5,27,0.00144960708018616,0.0080872816052491
274,5,27,0.00186160067139696,0.00823987182421607
275,5,27,0.0628519111924926,0.00798046845197223
276,5,27,0.00460822461280232,0.00740062561989776
277,5,27,0.0258182650492103,0.0114137483787289
278,5,27,0.00192263675898375,0.00947585259784848
279,5,27,0.00230411230640116,0.0233005264362554
280,5,27,0.0025482566567483,0.0221713588158999
281,5,27,0.00178530556191348,0.00762951094834821
282,5,27,0.00160219729915312,0.00825513084611276
283,5,27,0.00227359426260777,0.00759899290455482
284,5,27,0.00230411230640116,0.00711070420386053
285,5,27,0.00170901045243,0.00802624551766232
286,5,27,0.00166323338673991,0.00830090791180285
287,5,27,0.0135652704661631,0.00773632410162509
288,5,27,0.0021515220874342,0.00741588464179446
289,5,27,0.00173952849622339,0.00759899290455482
290,5,27,0.00109864957656214,0.00779736018921187
291,5,27,0.00231937132829786,0.00785839627679866
269,6,27,0.00183108262760357,0.0072480354009308
270,6,27,0.00178530556191348,0.015884641794461
271,6,27,0.0221560997940032,0.00976577401388571
272,6,27,0.0021515220874342,0.0101319905394064
273,6,27,0.00692759594110018,0.0139772640573739
274,6,27,0.011459525444419,0.0111390859845884
275,6,27,0.00563057907988098,0.0114137483787289
276,6,27,0.00532539864194705,0.0080872816052491
277,6,27,0.00218204013122759,0.0101472495613031
278,6,27,0.002563515678645,0.00845349813076982
279,6,27,0.00222781719691768,0.0103150988021668
280,6,27,0.00360112916762036,0.00862134737163348
281,6,27,0.00698863202868696,0.0222018768596933
282,6,27,0.00209048599984741,0.0154421301594568
283,6,27,0.066849774929427,0.00816357671473259
284,6,27,0.00910963607232776,0.0114442664225223
285,6,27,0.0452124818799115,0.00836194399938964
286,6,27,0.00337224383916991,0.00762951094834821
287,6,27,0.00476081483176928,0.00735484855420768
288,6,27,0.0172732127870604,0.00804150453955901
289,6,27,0.0016937514305333,0.0178225375753414
290,6,27,0.00396734569314107,0.00737010757610437
269,7,27,0.00135805294880598,0.0170748455024033
270,7,27,0.0017242694743267,0.00741588464179446
271,7,27,0.0021210040436408,0.0157930876630808
272,7,27,0.0223544670786603,0.00779736018921187
273,7,27,0.00154116121156634,0.0161287861448081
274,7,27,0.0967727168688487,0.015533684290837
275,7,27,0.0300755321583886,0.00759899290455482
276,7,27,0.00221255817502098,0.00755321583886473
277,7,27,0.0160219729915312,0.00837720302128634
278,7,27,0.0254062714579995,0.00807202258335241
279,7,27,0.00234988937209125,0.0106355382619974
280,7,27,0.00987258716716258,0.00714122224765393
281,7,27,0.0148165102616922,0.00798046845197223
282,7,27,0.0110627908751049,0.00837720302128634
283,7,27,0.00175478751812009,0.0101777676050965
284,7,27,0.00198367284657053,0.00950637064164187
285,7,27,0.00209048599984741,0.00740062561989776
286,7,27,0.00157167925535973,0.009399557488365
287,7,27,0.00186160067139696,0.0187228198672465
288,7,27,0.00241092545967803,0.0147402151522087
289,7,27,0.0021362630655375,0.00839246204318303
290,7,27,0.0308079652094301,0.00822461280231937
270,8,27,0.0671091783016709,0.00802624551766232
271,8,27,0.0195468070496681,0.00819409475852598
272,8,27,0.00532539864194705,0.0115053025101091
273,8,27,0.0219729915312428,0.00744640268558785
274,8,27,0.00230411230640116,0.00761425192645151
275,8,27,0.00186160067139696,0.0104829480430304
276,8,27,0.00166323338673991,0.0081177996490425
277,8,27,0.00178530556191348,0.00761425192645151
278,8,27,0.0529640650034333,0.00738536659800107
279,8,27,0.0126955062180514,0.00773632410162509
280,8,27,0.00186160067139696,0.00801098649576562
281,8,27,0.00158693827725643,0.00788891432059205
282,8,27,0.0427557793545434,0.00708018616006714
283,8,27,0.0544289311055161,0.00779736018921187
284,8,27,0.00189211871519036,0.00825513084611276
285,8,27,0.0021210040436408,0.00798046845197223
286,8,27,0.00183108262760357,0.0072327763790341
287,8,27,0.00170901045243,0.00735484855420768
288,8,27,0.00175478751812009,0.0113984893568322
289,8,27,0.00158693827725643,0.00828564888990616
271,9,27,0.00262455176623178,0.00781261921110857
272,9,27,0.00253299763485161,0.00775158312352178
273,9,27,0.00195315480277714,0.00787365529869535
274,9,27,0.021515220874342,0.00781261921110857
275,9,27,0.00253299763485161,0.0164797436484321
276,9,27,0.00230411230640116,0.00869764248111696
277,9,27,0.00306706340123598,0.0119783321889067
278,9,27,0.015533684290837,0.0081177996490425
279,9,27,0.00209048599984741,0.00920119020370794
280,9,27,0.00221255817502098,0.00914015411612116
281,9,27,0.00201419089036393,0.00782787823300526
282,9,27,0.00624093995574884,0.00785839627679866
283,9,27,0.00224307621881437,0.0076752880140383
284,9,27,0.00228885328450446,0.00756847486076143
285,9,27,0.00199893186846723,0.00799572747386892
286,9,27,0.00221255817502098,0.00819409475852598
287,9,27,0.00239566643778134,0.00799572747386892
288,9,27,0.00207522697795071,0.00759899290455482
272,10,27,0.00202944991226062,0.00758373388265812
273,10,27,0.00204470893415732,0.00747692072938125
274,10,27,0.0204928664072633,0.00747692072938125
275,10,27,0.0197909514000153,0.0104371709773404
276,10,27,0.00207522697795071,0.0147402151522087
277,10,27,0.00225833524071107,0.0200503547722591
278,10,27,0.00941481651026169,0.00762951094834821
279,10,27,0.0602883955138476,0.00770580605783169
280,10,27,0.00744640268558785,0.0076600289921416
281,10,27,0.00239566643778134,0.0185549706263828
282,10,27,0.00216678110933089,0.00794995040817884
283,10,27,0.0021362630655375,0.00773632410162509
284,10,27,0.00164797436484321,0.0127565423056382
285,10,27,0.00227359426260777,0.00749217975127794
286,10,27,0.0108186465247578,0.00746166170748455
287,10,27,0.0195162890058747,0.00779736018921187
273,11,27,0.00186160067139696,0.00869764248111696
274,11,27,0.00221255817502098,0.00775158312352178
275,11,27,0.00228885328450446,0.00773632410162509
276,11,27,0.00231937132829786,0.0076752880140383
277,11,27,0.00219729915312428,0.00784313725490196
278,11,27,0.0017242694743267,0.00849927519645991
279,11,27,0.0021362630655375,0.00746166170748455
280,11,27,0.00207522697795071,0.00744640268558785
281,11,27,0.00192263675898375,0.00801098649576562
282,11,27,0.00175478751812009,0.00781261921110857
283,11,27,0.0193789578088045,0.00779736018921187
284,11,27,0.0187533379110399,0.00770580605783169
285,11,27,0.00193789578088045,0.0136568245975433
286,11,27,0.0600595101853971,0.00773632410162509
274,12,27,0.0021210040436408,0.0187838559548333
275,12,27,0.00195315480277714,0.0143587396047913
276,12,27,0.00149538414587625,0.0190280003051804
277,12,27,0.00221255817502098,0.0125429159990845
278,12,27,0.00251773861295491,0.00976577401388571
279,12,27,0.00181582360570687,0.0163424124513619
280,12,27,0.00167849240863661,0.00921644922560464
281,12,27,0.00186160067139696,0.00859082932784009
282,12,27,0.00230411230640116,0.00740062561989776
283,12,27,0.00253299763485161,0.00787365529869535
284,12,27,0.0223086900129702,0.00949111161974517
285,12,27,0.00158693827725643,0.00775158312352178
275,13,27,0.00239566643778134,0.0076600289921416
276,13,27,0.00234988937209125,0.009399557488365
277,13,27,0.00419623102159152,0.0162661173418784
278,13,27,0.00651560234988937,0.0140383001449607
279,13,27,0.00164797436484321,0.0142214084077211
280,13,27,0.045136186770428,0.00770580605783169
281,13,27,0.00209048599984741,0.00793469138628214
282,13,27,0.00181582360570687,0.0108644235904479
283,13,27,0.0016937514305333,0.00964370183871214
277,14,27,0.0021362630655375,0.00698863202868696
278,14,27,0.00263981078812848,0.00717174029144732
279,14,27,0.00204470893415732,0.00817883573662928
280,14,27,0.00146486610208286,0.00790417334248875
281,14,27,0.00186160067139696,0.00666819256885634
279,15,27,0.00222781719691768,0.00691233691920348
280,15,27,0.0992294193942168,0.0150606546120394
